t1,ch1,t2,ch2
-3.769791666666667,-0.008549194335937501,-3.7697915416666667,0.13537474632263186
-3.764791666666667,-0.0026019287109375,-3.764791541666667,0.21467894554138187
-3.759791666666667,-0.0006195068359375001,-3.759791541666667,0.27812230491638185
-3.7547916666666667,0.00037170410156250005,-3.7547915416666666,0.2682092800140381
-3.749791666666667,0.004336547851562501,-3.7497915416666667,0.16709642601013186
-3.744791666666667,-0.0055755615234375005,-3.744791541666667,-0.0034076023101806646
-3.739791666666667,-0.0026019287109375,-3.739791541666667,-0.12038129615783692
-3.7347916666666667,-0.0026019287109375,-3.7347915416666666,-0.17192902565002444
-3.729791666666667,-0.0006195068359375001,-3.7297915416666667,-0.1778768405914307
-3.724791666666667,-0.0026019287109375,-3.724791541666667,-0.15012037086486818
-3.719791666666667,-0.0026019287109375,-3.719791541666667,-0.1213725986480713
-3.7147916666666667,-0.0035931396484375003,-3.7147915416666666,-0.10154654884338381
-3.709791666666667,-0.0016107177734375003,-3.7097915416666667,-0.08072919654846192
-3.704791666666667,-0.0016107177734375003,-3.704791541666667,-0.06090314674377442
-3.699791666666667,-0.0035931396484375003,-3.699791541666667,-0.049998819351196294
-3.694791666666667,-0.0105316162109375,-3.694791541666667,-0.040085794448852546
-3.689791666666667,-0.0035931396484375003,-3.6897915416666667,-0.02620755958557129
-3.684791666666667,-0.004584350585937501,-3.684791541666667,-0.023233652114868168
-3.679791666666667,0.0013629150390625001,-3.679791541666667,-0.02422495460510254
-3.674791666666667,-0.004584350585937501,-3.674791541666667,-0.01629453468322754
-3.669791666666667,-0.0016107177734375003,-3.6697915416666667,0.006505422592163087
-3.664791666666667,-0.0016107177734375003,-3.6647915416666668,0.010470632553100587
-3.659791666666667,-0.0016107177734375003,-3.659791541666667,0.005514120101928712
-3.654791666666667,-0.0016107177734375003,-3.654791541666667,-0.0034076023101806646
-3.6497916666666668,-0.0035931396484375003,-3.6497915416666666,-0.00836411476135254
-3.644791666666667,-0.007557983398437501,-3.6447915416666667,0.007496725082397462
-3.639791666666667,0.0013629150390625001,-3.639791541666667,0.019392354965209965
-3.634791666666667,-0.0006195068359375001,-3.634791541666667,0.021374959945678715
-3.6297916666666667,-0.004584350585937501,-3.6297915416666666,0.017409749984741214
-3.624791666666667,-0.0006195068359375001,-3.6247915416666667,0.015427145004272462
-3.619791666666667,0.00037170410156250005,-3.619791541666667,0.022366262435913088
-3.614791666666667,0.00037170410156250005,-3.614791541666667,0.02831407737731934
-3.6097916666666667,-0.0006195068359375001,-3.6097915416666666,0.051114034652709965
-3.604791666666667,-0.0055755615234375005,-3.6047915416666667,0.06300966453552247
-3.599791666666667,-0.0055755615234375005,-3.599791541666667,0.07887050437927247
-3.594791666666667,-0.0055755615234375005,-3.594791541666667,0.08283571434020998
-3.5897916666666667,-0.0006195068359375001,-3.5897915416666666,0.0699487819671631
-3.584791666666667,-0.0035931396484375003,-3.5847915416666667,0.06895747947692872
-3.579791666666667,-0.0035931396484375003,-3.579791541666667,0.08680092430114747
-3.574791666666667,-0.0026019287109375,-3.574791541666667,0.11753130149841311
-3.569791666666667,-0.0035931396484375003,-3.569791541666667,0.13140953636169436
-3.564791666666667,-0.0035931396484375003,-3.5647915416666667,0.11653999900817873
-3.559791666666667,-0.0026019287109375,-3.559791541666667,0.13140953636169436
-3.554791666666667,-0.0055755615234375005,-3.554791541666667,0.13041823387145998
-3.549791666666667,-0.0006195068359375001,-3.549791541666667,0.15024428367614748
-3.544791666666667,0.004336547851562501,-3.5447915416666667,0.16808772850036624
-3.539791666666667,0.0023541259765625005,-3.5397915416666668,0.16808772850036624
-3.534791666666667,-0.004584350585937501,-3.534791541666667,0.18493987083435062
-3.529791666666667,-0.0035931396484375003,-3.529791541666667,0.19584419822692872
-3.5247916666666668,-0.006566772460937501,-3.5247915416666666,0.1968355007171631
-3.519791666666667,0.0013629150390625001,-3.5197915416666667,0.19088768577575685
-3.514791666666667,-0.007557983398437501,-3.514791541666667,0.19386159324646
-3.509791666666667,-0.0035931396484375003,-3.509791541666667,0.19485289573669437
-3.5047916666666667,-0.0055755615234375005,-3.5047915416666666,0.17800075340271
-3.499791666666667,-0.0055755615234375005,-3.4997915416666667,0.1581747035980225
-3.494791666666667,-0.0026019287109375,-3.494791541666667,0.1264530239105225
-3.489791666666667,0.0013629150390625001,-3.489791541666667,0.06400096702575685
-3.4847916666666667,-0.0055755615234375005,-3.4847915416666666,0.010470632553100587
-3.479791666666667,-0.0006195068359375001,-3.4797915416666667,-0.023233652114868168
-3.474791666666667,-0.0035931396484375003,-3.474791541666667,-0.05892054176330567
-3.469791666666667,-0.0026019287109375,-3.469791541666667,-0.09262482643127443
-3.4647916666666667,-0.0016107177734375003,-3.4647915416666666,-0.13128562355041506
-3.459791666666667,-0.008549194335937501,-3.4597915416666667,-0.15705948829650881
-3.454791666666667,-0.0105316162109375,-3.454791541666667,-0.17292032814025882
-3.449791666666667,-0.004584350585937501,-3.449791541666667,-0.19076377296447755
-3.444791666666667,-0.0035931396484375003,-3.444791541666667,-0.1967115879058838
-3.439791666666667,0.0033453369140625006,-3.4397915416666667,-0.1967115879058838
-3.434791666666667,-0.0006195068359375001,-3.434791541666667,-0.1967115879058838
-3.429791666666667,-0.0026019287109375,-3.429791541666667,-0.19968549537658695
-3.424791666666667,-0.0026019287109375,-3.424791541666667,-0.18679856300354006
-3.419791666666667,-0.0016107177734375003,-3.4197915416666667,-0.18778986549377444
-3.414791666666667,-0.0016107177734375003,-3.4147915416666668,-0.19572028541564943
-3.409791666666667,-0.0026019287109375,-3.409791541666667,-0.20067679786682133
-3.404791666666667,-0.0055755615234375005,-3.404791541666667,-0.1897724704742432
-3.3997916666666668,0.0023541259765625005,-3.3997915416666666,-0.1778768405914307
-3.394791666666667,-0.0055755615234375005,-3.3947915416666667,-0.1768855381011963
-3.389791666666667,-0.0026019287109375,-3.389791541666667,-0.1739116306304932
-3.384791666666667,-0.004584350585937501,-3.384791541666667,-0.16895511817932132
-3.3797916666666667,-0.0055755615234375005,-3.3797915416666666,-0.1461551609039307
-3.374791666666667,-0.0026019287109375,-3.3747915416666667,-0.13525083351135256
-3.369791666666667,-0.0026019287109375,-3.369791541666667,-0.13525083351135256
-3.364791666666667,-0.0006195068359375001,-3.364791541666667,-0.1263291110992432
-3.3597916666666667,0.00037170410156250005,-3.3597915416666666,-0.13029432106018068
-3.354791666666667,-0.0026019287109375,-3.3547915416666667,-0.13128562355041506
-3.349791666666667,-0.0026019287109375,-3.349791541666667,-0.1293030185699463
-3.344791666666667,-0.0055755615234375005,-3.344791541666667,-0.1213725986480713
-3.3397916666666667,-0.0035931396484375003,-3.3397915416666666,-0.1213725986480713
-3.334791666666667,-0.0006195068359375001,-3.3347915416666667,-0.11145957374572756
-3.329791666666667,-0.0055755615234375005,-3.329791541666667,-0.09262482643127443
-3.324791666666667,-0.0016107177734375003,-3.324791541666667,-0.08271180152893068
-3.319791666666667,-0.0006195068359375001,-3.319791541666667,-0.08469440650939943
-3.314791666666667,-0.0055755615234375005,-3.3147915416666667,-0.08469440650939943
-3.309791666666667,-0.0026019287109375,-3.309791541666667,-0.08072919654846192
-3.304791666666667,-0.0055755615234375005,-3.304791541666667,-0.061894449234008796
-3.299791666666667,0.0013629150390625001,-3.299791541666667,-0.05495533180236817
-3.294791666666667,-0.006566772460937501,-3.2947915416666667,-0.05495533180236817
-3.289791666666667,-0.0016107177734375003,-3.2897915416666668,-0.05297272682189942
-3.284791666666667,0.00037170410156250005,-3.284791541666667,-0.06685096168518068
-3.279791666666667,0.0013629150390625001,-3.279791541666667,-0.07973789405822755
-3.2747916666666668,0.00037170410156250005,-3.2747915416666666,-0.09163352394104005
-3.269791666666667,0.00037170410156250005,-3.2697915416666667,-0.07874659156799317
-3.264791666666667,-0.0035931396484375003,-3.264791541666667,-0.06090314674377442
-3.259791666666667,-0.0026019287109375,-3.259791541666667,-0.049998819351196294
-3.2547916666666667,-0.0016107177734375003,-3.2547915416666666,-0.04801621437072755
-3.249791666666667,-0.007557983398437501,-3.2497915416666667,-0.05099012184143067
-3.244791666666667,-0.009540405273437502,-3.244791541666667,-0.05693793678283692
-3.239791666666667,-0.0035931396484375003,-3.239791541666667,-0.05495533180236817
-3.2347916666666667,-0.006566772460937501,-3.2347915416666666,-0.05198142433166505
-3.229791666666667,-0.004584350585937501,-3.2297915416666667,-0.05099012184143067
-3.224791666666667,0.0013629150390625001,-3.224791541666667,-0.035129281997680666
-3.219791666666667,-0.004584350585937501,-3.219791541666667,-0.05297272682189942
-3.2147916666666667,-0.004584350585937501,-3.2147915416666666,-0.06486835670471192
-3.209791666666667,-0.007557983398437501,-3.2097915416666667,-0.061894449234008796
-3.204791666666667,-0.0035931396484375003,-3.204791541666667,-0.05892054176330567
-3.199791666666667,-0.004584350585937501,-3.199791541666667,-0.0658596591949463
-3.194791666666667,-0.0006195068359375001,-3.194791541666667,-0.05297272682189942
-3.189791666666667,-0.0035931396484375003,-3.1897915416666667,-0.04801621437072755
-3.184791666666667,-0.006566772460937501,-3.184791541666667,-0.05099012184143067
-3.179791666666667,-0.0035931396484375003,-3.179791541666667,-0.04702491188049317
-3.174791666666667,-0.0055755615234375005,-3.174791541666667,-0.040085794448852546
-3.169791666666667,-0.0055755615234375005,-3.1697915416666667,-0.02224234962463379
-3.164791666666667,-0.0105316162109375,-3.1647915416666668,-0.015303232192993167
-3.159791666666667,-0.0035931396484375003,-3.159791541666667,-0.027198862075805668
-3.154791666666667,-0.0026019287109375,-3.154791541666667,-0.046033609390258794
-3.1497916666666668,-0.0035931396484375003,-3.1497915416666666,-0.053964029312133795
-3.144791666666667,-0.0035931396484375003,-3.1447915416666667,-0.05297272682189942
-3.139791666666667,-0.0035931396484375003,-3.139791541666667,-0.04107709693908692
-3.134791666666667,-0.006566772460937501,-3.134791541666667,-0.03314667701721192
-3.1297916666666667,0.00037170410156250005,-3.1297915416666666,-0.040085794448852546
-3.124791666666667,0.0033453369140625006,-3.1247915416666667,-0.05099012184143067
-3.119791666666667,0.004336547851562501,-3.119791541666667,-0.04801621437072755
-3.114791666666667,-0.0026019287109375,-3.114791541666667,-0.06090314674377442
-3.1097916666666667,-0.0055755615234375005,-3.1097915416666666,-0.04305970191955567
-3.104791666666667,-0.0035931396484375003,-3.1047915416666667,-0.035129281997680666
-3.099791666666667,-0.0035931396484375003,-3.099791541666667,-0.03116407203674317
-3.094791666666667,0.00037170410156250005,-3.094791541666667,-0.027198862075805668
-3.0897916666666667,-0.006566772460937501,-3.0897915416666666,-0.03810318946838379
-3.084791666666667,-0.0016107177734375003,-3.0847915416666667,-0.057929239273071295
-3.079791666666667,-0.0016107177734375003,-3.079791541666667,-0.05099012184143067
-3.074791666666667,-0.0035931396484375003,-3.074791541666667,-0.03810318946838379
-3.069791666666667,-0.0035931396484375003,-3.069791541666667,-0.027198862075805668
-3.064791666666667,-0.0026019287109375,-3.0647915416666667,-0.02422495460510254
-3.059791666666667,0.0013629150390625001,-3.059791541666667,-0.03413797950744629
-3.054791666666667,-0.004584350585937501,-3.054791541666667,-0.03711188697814942
-3.049791666666667,-0.004584350585937501,-3.049791541666667,-0.04305970191955567
-3.044791666666667,-0.0035931396484375003,-3.0447915416666667,-0.039094491958618166
-3.039791666666667,-0.004584350585937501,-3.0397915416666668,-0.02620755958557129
-3.034791666666667,0.0013629150390625001,-3.034791541666667,-0.03116407203674317
-3.029791666666667,-0.006566772460937501,-3.029791541666667,-0.02422495460510254
-3.0247916666666668,-0.0035931396484375003,-3.0247915416666666,-0.021251047134399417
-3.019791666666667,-0.006566772460937501,-3.0197915416666667,-0.01629453468322754
-3.014791666666667,-0.0016107177734375003,-3.014791541666667,-0.025216257095336918
-3.009791666666667,-0.0016107177734375003,-3.009791541666667,-0.032155374526977545
-3.0047916666666667,-0.0016107177734375003,-3.0047915416666666,-0.023233652114868168
-2.999791666666667,-0.004584350585937501,-2.9997915416666667,-0.021251047134399417
-2.994791666666667,-0.0026019287109375,-2.994791541666667,-0.007372812271118165
-2.989791666666667,-0.0026019287109375,-2.989791541666667,-0.010346719741821291
-2.9847916666666667,-0.0026019287109375,-2.9847915416666666,-0.013320627212524416
-2.979791666666667,-0.0035931396484375003,-2.9797915416666667,-0.010346719741821291
-2.974791666666667,-0.006566772460937501,-2.974791541666667,-0.0004336948394775391
-2.969791666666667,-0.0016107177734375003,-2.969791541666667,0.004522817611694337
-2.9647916666666667,-0.007557983398437501,-2.9647915416666666,0.017409749984741214
-2.959791666666667,-0.004584350585937501,-2.9597915416666667,0.012453237533569337
-2.954791666666667,-0.0055755615234375005,-2.954791541666667,-0.004398904800415039
-2.949791666666667,-0.006566772460937501,-2.949791541666667,-0.015303232192993167
-2.9447916666666667,-0.006566772460937501,-2.9447915416666666,-0.025216257095336918
-2.939791666666667,-0.006566772460937501,-2.9397915416666667,-0.03314667701721192
-2.934791666666667,-0.0026019287109375,-2.934791541666667,-0.040085794448852546
-2.929791666666667,-0.004584350585937501,-2.929791541666667,-0.05099012184143067
-2.924791666666667,-0.0035931396484375003,-2.924791541666667,-0.04504230690002442
-2.919791666666667,-0.0026019287109375,-2.9197915416666667,-0.05198142433166505
-2.914791666666667,-0.0035931396484375003,-2.9147915416666668,-0.05495533180236817
-2.909791666666667,-0.0006195068359375001,-2.909791541666667,-0.040085794448852546
-2.904791666666667,0.00037170410156250005,-2.904791541666667,-0.032155374526977545
-2.8997916666666668,-0.0016107177734375003,-2.8997915416666666,-0.049998819351196294
-2.894791666666667,0.00037170410156250005,-2.8947915416666667,-0.05693793678283692
-2.889791666666667,-0.0026019287109375,-2.889791541666667,-0.05495533180236817
-2.884791666666667,-0.004584350585937501,-2.884791541666667,-0.06288575172424317
-2.8797916666666667,-0.0026019287109375,-2.8797915416666666,-0.05594663429260255
-2.874791666666667,-0.0035931396484375003,-2.8747915416666667,-0.04107709693908692
-2.869791666666667,-0.008549194335937501,-2.869791541666667,-0.04504230690002442
-2.864791666666667,-0.0035931396484375003,-2.864791541666667,-0.05099012184143067
-2.8597916666666667,-0.0055755615234375005,-2.8597915416666666,-0.04900751686096192
-2.854791666666667,-0.0055755615234375005,-2.8547915416666667,-0.04305970191955567
-2.849791666666667,-0.0055755615234375005,-2.849791541666667,-0.046033609390258794
-2.844791666666667,-0.007557983398437501,-2.844791541666667,-0.04900751686096192
-2.8397916666666667,-0.0055755615234375005,-2.8397915416666666,-0.053964029312133795
-2.834791666666667,-0.004584350585937501,-2.8347915416666667,-0.04702491188049317
-2.829791666666667,-0.0035931396484375003,-2.829791541666667,-0.019268442153930667
-2.824791666666667,-0.004584350585937501,-2.824791541666667,0.021374959945678715
-2.8197916666666667,-0.0026019287109375,-2.8197915416666666,0.08085310935974122
-2.814791666666667,-0.0006195068359375001,-2.8147915416666667,0.15222688865661624
-2.809791666666667,-0.006566772460937501,-2.809791541666667,0.2374789028167725
-2.804791666666667,0.004336547851562501,-2.804791541666667,0.2999309597015381
-2.799791666666667,-0.0035931396484375003,-2.799791541666667,0.2791136074066162
-2.794791666666667,-0.004584350585937501,-2.7947915416666667,0.15619209861755373
-2.789791666666667,-0.0016107177734375003,-2.7897915416666668,0.016418447494506837
-2.784791666666667,-0.0016107177734375003,-2.784791541666667,-0.09163352394104005
-2.779791666666667,-0.0026019287109375,-2.779791541666667,-0.15111167335510256
-2.7747916666666668,-0.0026019287109375,-2.7747915416666666,-0.16003339576721193
-2.769791666666667,-0.0055755615234375005,-2.7697915416666667,-0.1421899509429932
-2.764791666666667,-0.008549194335937501,-2.764791541666667,-0.0975813388824463
-2.759791666666667,-0.0035931396484375003,-2.759791541666667,-0.06486835670471192
-2.7547916666666667,-0.0035931396484375003,-2.7547915416666666,-0.039094491958618166
-2.749791666666667,-0.0006195068359375001,-2.7497915416666667,-0.03413797950744629
-2.744791666666667,-0.012514038085937502,-2.744791541666667,-0.04206839942932129
-2.739791666666667,-0.0026019287109375,-2.739791541666667,-0.039094491958618166
-2.7347916666666667,-0.0006195068359375001,-2.7347915416666666,-0.040085794448852546
-2.729791666666667,-0.0035931396484375003,-2.7297915416666667,-0.02620755958557129
-2.724791666666667,0.00037170410156250005,-2.724791541666667,-0.011338022232055666
-2.719791666666667,-0.0035931396484375003,-2.719791541666667,-0.014311929702758791
-2.7147916666666667,0.0033453369140625006,-2.7147915416666666,0.001548910140991211
-2.709791666666667,-0.0035931396484375003,-2.7097915416666667,0.010470632553100587
-2.704791666666667,-0.0055755615234375005,-2.704791541666667,0.0035315151214599613
-2.699791666666667,-0.0055755615234375005,-2.699791541666667,-0.0024162998199462895
-2.6947916666666667,-0.011522827148437501,-2.6947915416666666,0.007496725082397462
-2.689791666666667,-0.0035931396484375003,-2.6897915416666667,0.009479330062866212
-2.684791666666667,-0.007557983398437501,-2.684791541666667,0.015427145004272462
-2.679791666666667,-0.0016107177734375003,-2.679791541666667,0.015427145004272462
-2.674791666666667,-0.006566772460937501,-2.674791541666667,0.03128798484802246
-2.669791666666667,-0.0055755615234375005,-2.6697915416666667,0.03128798484802246
-2.664791666666667,-0.0006195068359375001,-2.6647915416666668,0.043183614730834964
-2.659791666666667,-0.0026019287109375,-2.659791541666667,0.04516621971130372
-2.654791666666667,-0.004584350585937501,-2.654791541666667,0.04913142967224122
-2.6497916666666668,-0.0016107177734375003,-2.6497915416666666,0.05309663963317872
-2.644791666666667,-0.006566772460937501,-2.6447915416666667,0.056070547103881846
-2.639791666666667,-0.0055755615234375005,-2.639791541666667,0.05408794212341309
-2.634791666666667,-0.013505249023437502,-2.634791541666667,0.0659835720062256
-2.6297916666666667,-0.007557983398437501,-2.6297915416666666,0.08382701683044434
-2.624791666666667,-0.004584350585937501,-2.6247915416666667,0.09572264671325685
-2.619791666666667,-0.006566772460937501,-2.619791541666667,0.11059218406677247
-2.614791666666667,-0.007557983398437501,-2.614791541666667,0.11554869651794435
-2.6097916666666667,-0.0055755615234375005,-2.6097915416666666,0.1254617214202881
-2.604791666666667,-0.009540405273437502,-2.6047915416666667,0.13636604881286624
-2.599791666666667,-0.0035931396484375003,-2.599791541666667,0.1452877712249756
-2.594791666666667,-0.0035931396484375003,-2.594791541666667,0.15520079612731935
-2.5897916666666667,-0.004584350585937501,-2.5897915416666666,0.1809746608734131
-2.584791666666667,-0.0035931396484375003,-2.5847915416666667,0.18493987083435062
-2.579791666666667,-0.006566772460937501,-2.579791541666667,0.18692247581481936
-2.574791666666667,-0.007557983398437501,-2.574791541666667,0.19485289573669437
-2.5697916666666667,-0.0006195068359375001,-2.5697915416666666,0.20972243309021
-2.564791666666667,-0.0055755615234375005,-2.5647915416666667,0.2087311305999756
-2.5597916666666665,-0.006566772460937501,-2.5597915416666663,0.17899205589294437
-2.5547916666666666,-0.0006195068359375001,-2.5547915416666664,0.1740355434417725
-2.5497916666666667,-0.0035931396484375003,-2.5497915416666666,0.15619209861755373
-2.544791666666667,-0.006566772460937501,-2.5447915416666667,0.14429646873474122
-2.5397916666666664,-0.004584350585937501,-2.5397915416666663,0.12347911643981935
-2.5347916666666666,-0.004584350585937501,-2.5347915416666664,0.07589659690856934
-2.5297916666666667,-0.006566772460937501,-2.5297915416666665,0.03822710227966309
-2.5247916666666668,-0.004584350585937501,-2.5247915416666666,-0.00836411476135254
-2.5197916666666664,-0.006566772460937501,-2.5197915416666663,-0.05099012184143067
-2.5147916666666665,-0.0035931396484375003,-2.5147915416666664,-0.09559873390197755
-2.5097916666666666,-0.0006195068359375001,-2.5097915416666665,-0.1293030185699463
-2.5047916666666667,-0.004584350585937501,-2.5047915416666666,-0.15705948829650881
-2.4997916666666664,-0.0055755615234375005,-2.4997915416666663,-0.18184205055236818
-2.4947916666666665,-0.0006195068359375001,-2.4947915416666664,-0.19472898292541507
-2.4897916666666666,-0.0026019287109375,-2.4897915416666665,-0.19175507545471193
-2.4847916666666667,0.0013629150390625001,-2.4847915416666666,-0.19076377296447755
-2.479791666666667,-0.007557983398437501,-2.4797915416666667,-0.1927463779449463
-2.4747916666666665,-0.0055755615234375005,-2.4747915416666664,-0.20166810035705568
-2.4697916666666666,-0.0016107177734375003,-2.4697915416666665,-0.2095985202789307
-2.4647916666666667,-0.0055755615234375005,-2.4647915416666666,-0.20166810035705568
-2.459791666666667,0.0053277587890625,-2.4597915416666667,-0.18679856300354006
-2.4547916666666665,-0.004584350585937501,-2.4547915416666664,-0.18679856300354006
-2.4497916666666666,-0.004584350585937501,-2.4497915416666665,-0.17490293312072755
-2.4447916666666667,-0.0006195068359375001,-2.4447915416666666,-0.15111167335510256
-2.439791666666667,-0.0055755615234375005,-2.4397915416666667,-0.13723343849182132
-2.4347916666666665,-0.0026019287109375,-2.4347915416666663,-0.12831171607971192
-2.4297916666666666,-0.004584350585937501,-2.4297915416666664,-0.1411986484527588
-2.4247916666666667,-0.0006195068359375001,-2.4247915416666666,-0.14417255592346193
-2.419791666666667,-0.0026019287109375,-2.4197915416666667,-0.14417255592346193
-2.4147916666666664,0.00037170410156250005,-2.4147915416666663,-0.15507688331604005
-2.4097916666666666,-0.0026019287109375,-2.4097915416666664,-0.15012037086486818
-2.4047916666666667,-0.004584350585937501,-2.4047915416666665,-0.15111167335510256
-2.3997916666666668,-0.0055755615234375005,-2.3997915416666666,-0.1451638584136963
-2.3947916666666664,0.0023541259765625005,-2.3947915416666663,-0.13525083351135256
-2.3897916666666665,-0.004584350585937501,-2.3897915416666664,-0.11938999366760256
-2.3847916666666666,0.00037170410156250005,-2.3847915416666665,-0.11046827125549318
-2.3797916666666667,-0.0006195068359375001,-2.3797915416666666,-0.10650306129455568
-2.3747916666666664,-0.004584350585937501,-2.3747915416666663,-0.09460743141174317
-2.3697916666666665,-0.0016107177734375003,-2.3697915416666664,-0.0896509189605713
-2.3647916666666666,-0.0026019287109375,-2.3647915416666665,-0.09956394386291505
-2.3597916666666667,-0.0026019287109375,-2.3597915416666666,-0.09559873390197755
-2.354791666666667,-0.0035931396484375003,-2.3547915416666667,-0.09163352394104005
-2.3497916666666665,-0.0055755615234375005,-2.3497915416666664,-0.07577268409729004
-2.3447916666666666,-0.0016107177734375003,-2.3447915416666665,-0.07180747413635255
-2.3397916666666667,-0.0026019287109375,-2.3397915416666666,-0.0737900791168213
-2.334791666666667,-0.0026019287109375,-2.3347915416666667,-0.07676398658752442
-2.3297916666666665,-0.0016107177734375003,-2.3297915416666664,-0.08469440650939943
-2.3247916666666666,0.00037170410156250005,-2.3247915416666665,-0.0896509189605713
-2.3197916666666667,-0.0026019287109375,-2.3197915416666666,-0.0817204990386963
-2.314791666666667,-0.0035931396484375003,-2.3147915416666667,-0.0658596591949463
-2.3097916666666665,-0.007557983398437501,-2.3097915416666663,-0.049998819351196294
-2.3047916666666666,-0.004584350585937501,-2.3047915416666664,-0.05297272682189942
-2.2997916666666667,-0.0016107177734375003,-2.2997915416666666,-0.05495533180236817
-2.294791666666667,-0.0016107177734375003,-2.2947915416666667,-0.039094491958618166
-2.2897916666666664,-0.006566772460937501,-2.2897915416666663,-0.046033609390258794
-2.2847916666666666,-0.0006195068359375001,-2.2847915416666664,-0.05892054176330567
-2.2797916666666667,-0.004584350585937501,-2.2797915416666665,-0.07180747413635255
-2.2747916666666668,-0.0035931396484375003,-2.2747915416666666,-0.061894449234008796
-2.2697916666666664,-0.004584350585937501,-2.2697915416666663,-0.06090314674377442
-2.2647916666666665,-0.0016107177734375003,-2.2647915416666664,-0.053964029312133795
-2.2597916666666666,-0.0035931396484375003,-2.2597915416666665,-0.04702491188049317
-2.2547916666666667,-0.0055755615234375005,-2.2547915416666666,-0.04405100440979005
-2.2497916666666664,-0.0055755615234375005,-2.2497915416666663,-0.04305970191955567
-2.2447916666666665,0.00037170410156250005,-2.2447915416666664,-0.04801621437072755
-2.2397916666666666,-0.007557983398437501,-2.2397915416666665,-0.05693793678283692
-2.2347916666666667,0.0013629150390625001,-2.2347915416666666,-0.05594663429260255
-2.229791666666667,-0.0006195068359375001,-2.2297915416666667,-0.05495533180236817
-2.2247916666666665,0.0033453369140625006,-2.2247915416666664,-0.06784226417541504
-2.2197916666666666,0.0013629150390625001,-2.2197915416666665,-0.06288575172424317
-2.2147916666666667,-0.0035931396484375003,-2.2147915416666666,-0.057929239273071295
-2.209791666666667,-0.0026019287109375,-2.2097915416666667,-0.04801621437072755
-2.2047916666666665,-0.0026019287109375,-2.2047915416666664,-0.05198142433166505
-2.1997916666666666,-0.0055755615234375005,-2.1997915416666665,-0.04405100440979005
-2.1947916666666667,-0.004584350585937501,-2.1947915416666666,-0.05297272682189942
-2.189791666666667,-0.0006195068359375001,-2.1897915416666667,-0.04801621437072755
-2.1847916666666665,-0.0055755615234375005,-2.1847915416666663,-0.04405100440979005
-2.1797916666666666,-0.0035931396484375003,-2.1797915416666664,-0.02918146705627442
-2.1747916666666667,-0.007557983398437501,-2.1747915416666666,-0.03314667701721192
-2.169791666666667,-0.0006195068359375001,-2.1697915416666667,-0.03314667701721192
-2.1647916666666664,-0.008549194335937501,-2.1647915416666663,-0.039094491958618166
-2.1597916666666666,-0.0026019287109375,-2.1597915416666664,-0.046033609390258794
-2.1547916666666667,-0.0016107177734375003,-2.1547915416666665,-0.03711188697814942
-2.1497916666666668,-0.0035931396484375003,-2.1497915416666666,-0.03314667701721192
-2.1447916666666664,-0.008549194335937501,-2.1447915416666663,-0.03314667701721192
-2.1397916666666665,-0.0016107177734375003,-2.1397915416666664,-0.03413797950744629
-2.1347916666666666,-0.008549194335937501,-2.1347915416666665,-0.04206839942932129
-2.1297916666666667,-0.0055755615234375005,-2.1297915416666666,-0.035129281997680666
-2.1247916666666664,-0.0026019287109375,-2.1247915416666663,-0.04107709693908692
-2.1197916666666665,-0.0035931396484375003,-2.1197915416666664,-0.05297272682189942
-2.1147916666666666,-0.0035931396484375003,-2.1147915416666665,-0.06090314674377442
-2.1097916666666667,-0.0055755615234375005,-2.1097915416666666,-0.036120584487915046
-2.1047916666666664,-0.0035931396484375003,-2.1047915416666663,-0.035129281997680666
-2.0997916666666665,-0.0026019287109375,-2.0997915416666664,-0.03413797950744629
-2.0947916666666666,0.00037170410156250005,-2.0947915416666665,-0.039094491958618166
-2.0897916666666667,-0.0016107177734375003,-2.0897915416666666,-0.035129281997680666
-2.084791666666667,0.0033453369140625006,-2.0847915416666667,-0.04107709693908692
-2.0797916666666665,-0.0006195068359375001,-2.0797915416666664,-0.021251047134399417
-2.0747916666666666,-0.0035931396484375003,-2.0747915416666665,-0.0024162998199462895
-2.0697916666666667,-0.004584350585937501,-2.0697915416666666,0.002540212631225586
-2.064791666666667,-0.0035931396484375003,-2.0647915416666667,0.007496725082397462
-2.0597916666666665,-0.004584350585937501,-2.0597915416666663,0.012453237533569337
-2.0547916666666666,-0.0035931396484375003,-2.0547915416666664,0.018401052474975588
-2.0497916666666667,-0.004584350585937501,-2.0497915416666666,-0.0034076023101806646
-2.044791666666667,-0.0026019287109375,-2.0447915416666667,-0.00836411476135254
-2.0397916666666664,-0.004584350585937501,-2.0397915416666663,-0.019268442153930667
-2.0347916666666666,-0.0035931396484375003,-2.0347915416666664,-0.03017276954650879
-2.0297916666666667,-0.004584350585937501,-2.0297915416666665,-0.04107709693908692
-2.0247916666666668,0.00037170410156250005,-2.0247915416666666,-0.046033609390258794
-2.0197916666666664,-0.009540405273437502,-2.0197915416666663,-0.04504230690002442
-2.0147916666666665,-0.0026019287109375,-2.0147915416666664,-0.040085794448852546
-2.0097916666666666,-0.0055755615234375005,-2.0097915416666665,-0.036120584487915046
-2.0047916666666667,-0.0035931396484375003,-2.0047915416666666,-0.035129281997680666
-1.9997916666666666,-0.004584350585937501,-1.9997915416666667,-0.040085794448852546
-1.9947916666666665,-0.004584350585937501,-1.9947915416666666,-0.04504230690002442
-1.9897916666666666,-0.004584350585937501,-1.9897915416666667,-0.04504230690002442
-1.9847916666666665,-0.0055755615234375005,-1.9847915416666666,-0.05892054176330567
-1.9797916666666666,-0.0016107177734375003,-1.9797915416666667,-0.06685096168518068
-1.9747916666666667,-0.0055755615234375005,-1.9747915416666668,-0.0658596591949463
-1.9697916666666666,-0.0006195068359375001,-1.9697915416666667,-0.06883356666564942
-1.9647916666666667,-0.0006195068359375001,-1.9647915416666668,-0.06288575172424317
-1.9597916666666666,-0.0055755615234375005,-1.9597915416666667,-0.0658596591949463
-1.9547916666666667,-0.0026019287109375,-1.9547915416666668,-0.07279877662658692
-1.9497916666666666,-0.0006195068359375001,-1.9497915416666667,-0.06784226417541504
-1.9447916666666667,-0.007557983398437501,-1.9447915416666668,-0.061894449234008796
-1.9397916666666666,-0.0026019287109375,-1.9397915416666667,-0.04305970191955567
-1.9347916666666667,-0.0006195068359375001,-1.9347915416666668,-0.03314667701721192
-1.9297916666666666,-0.0016107177734375003,-1.9297915416666667,-0.03413797950744629
-1.9247916666666667,0.00037170410156250005,-1.9247915416666668,-0.04900751686096192
-1.9197916666666666,-0.006566772460937501,-1.9197915416666667,-0.05892054176330567
-1.9147916666666667,-0.0016107177734375003,-1.9147915416666668,-0.04305970191955567
-1.9097916666666666,-0.0035931396484375003,-1.9097915416666666,-0.01629453468322754
-1.9047916666666667,-0.006566772460937501,-1.9047915416666668,0.017409749984741214
-1.8997916666666665,-0.0006195068359375001,-1.8997915416666666,0.0739139919281006
-1.8947916666666667,-0.004584350585937501,-1.8947915416666667,0.1581747035980225
-1.8897916666666665,-0.0026019287109375,-1.8897915416666666,0.2454093227386475
-1.8847916666666666,-0.0055755615234375005,-1.8847915416666667,0.281096212387085
-1.8797916666666665,-0.006566772460937501,-1.8797915416666666,0.22360066795349123
-1.8747916666666666,-0.0035931396484375003,-1.8747915416666667,0.06697487449645997
-1.8697916666666665,-0.0016107177734375003,-1.8697915416666666,-0.09559873390197755
-1.8647916666666666,-0.0035931396484375003,-1.8647915416666667,-0.18878116798400882
-1.8597916666666665,-0.0006195068359375001,-1.8597915416666666,-0.20365070533752444
-1.8547916666666666,-0.0016107177734375003,-1.8547915416666667,-0.19770289039611819
-1.8497916666666665,-0.0006195068359375001,-1.8497915416666666,-0.1649899082183838
-1.8447916666666666,-0.0026019287109375,-1.8447915416666667,-0.13822474098205567
-1.8397916666666667,-0.0016107177734375003,-1.8397915416666668,-0.10947696876525881
-1.8347916666666666,-0.004584350585937501,-1.8347915416666667,-0.07577268409729004
-1.8297916666666667,-0.0105316162109375,-1.8297915416666668,-0.05297272682189942
-1.8247916666666666,-0.0035931396484375003,-1.8247915416666667,-0.02918146705627442
-1.8197916666666667,-0.004584350585937501,-1.8197915416666668,-0.023233652114868168
-1.8147916666666666,-0.0016107177734375003,-1.8147915416666667,-0.02025974464416504
-1.8097916666666667,-0.0035931396484375003,-1.8097915416666668,-0.03116407203674317
-1.8047916666666666,-0.0026019287109375,-1.8047915416666667,-0.02819016456604004
-1.7997916666666667,-0.007557983398437501,-1.7997915416666668,-0.02422495460510254
-1.7947916666666666,-0.007557983398437501,-1.7947915416666667,-0.007372812271118165
-1.7897916666666667,0.00037170410156250005,-1.7897915416666668,-0.009355417251586916
-1.7847916666666666,-0.006566772460937501,-1.7847915416666666,-0.005390207290649414
-1.7797916666666667,-0.007557983398437501,-1.7797915416666668,-0.0034076023101806646
-1.7747916666666665,-0.0026019287109375,-1.7747915416666666,-0.0024162998199462895
-1.7697916666666667,-0.0016107177734375003,-1.7697915416666667,-0.0014249973297119144
-1.7647916666666665,-0.0016107177734375003,-1.7647915416666666,0.001548910140991211
-1.7597916666666666,-0.0105316162109375,-1.7597915416666667,0.013444540023803712
-1.7547916666666665,-0.004584350585937501,-1.7547915416666666,0.019392354965209965
-1.7497916666666666,-0.0016107177734375003,-1.7497915416666667,0.017409749984741214
-1.7447916666666665,-0.0035931396484375003,-1.7447915416666666,0.02831407737731934
-1.7397916666666666,-0.0026019287109375,-1.7397915416666667,0.05706184959411622
-1.7347916666666665,0.00037170410156250005,-1.7347915416666666,0.06499226951599121
-1.7297916666666666,0.0023541259765625005,-1.7297915416666667,0.07490529441833498
-1.7247916666666665,-0.007557983398437501,-1.7247915416666666,0.06400096702575685
-1.7197916666666666,-0.009540405273437502,-1.7197915416666667,0.06499226951599121
-1.7147916666666667,-0.0055755615234375005,-1.7147915416666668,0.07292268943786621
-1.7097916666666666,-0.0035931396484375003,-1.7097915416666667,0.08085310935974122
-1.7047916666666667,-0.0006195068359375001,-1.7047915416666668,0.08680092430114747
-1.6997916666666666,-0.004584350585937501,-1.6997915416666667,0.0937400417327881
-1.6947916666666667,-0.009540405273437502,-1.6947915416666668,0.0977052516937256
-1.6897916666666666,-0.004584350585937501,-1.6897915416666667,0.1135660915374756
-1.6847916666666667,-0.006566772460937501,-1.6847915416666668,0.13240083885192871
-1.6797916666666666,-0.004584350585937501,-1.6797915416666667,0.15123558616638186
-1.6747916666666667,0.0023541259765625005,-1.6747915416666668,0.15420949363708497
-1.6697916666666666,-0.0016107177734375003,-1.6697915416666667,0.17304424095153811
-1.6647916666666667,-0.0026019287109375,-1.6647915416666668,0.20080071067810062
-1.6597916666666666,-0.0035931396484375003,-1.6597915416666666,0.21368764305114749
-1.6547916666666667,-0.0026019287109375,-1.6547915416666668,0.21071373558044437
-1.6497916666666665,-0.0006195068359375001,-1.6497915416666666,0.2245919704437256
-1.6447916666666667,-0.0026019287109375,-1.6447915416666667,0.21467894554138187
-1.6397916666666665,-0.006566772460937501,-1.6397915416666666,0.18791377830505374
-1.6347916666666666,-0.0006195068359375001,-1.6347915416666667,0.16709642601013186
-1.6297916666666665,-0.0055755615234375005,-1.6297915416666666,0.1452877712249756
-1.6247916666666666,0.00037170410156250005,-1.6247915416666667,0.1294269313812256
-1.6197916666666665,0.00037170410156250005,-1.6197915416666666,0.0977052516937256
-1.6147916666666666,-0.0026019287109375,-1.6147915416666667,0.05012273216247559
-1.6097916666666665,-0.004584350585937501,-1.6097915416666666,0.012453237533569337
-1.6047916666666666,-0.007557983398437501,-1.6047915416666667,-0.02918146705627442
-1.5997916666666665,-0.0035931396484375003,-1.5997915416666666,-0.06784226417541504
-1.5947916666666666,-0.007557983398437501,-1.5947915416666667,-0.10947696876525881
-1.5897916666666667,0.0023541259765625005,-1.5897915416666668,-0.13029432106018068
-1.5847916666666666,-0.0016107177734375003,-1.5847915416666667,-0.1332682285308838
-1.5797916666666667,-0.0016107177734375003,-1.5797915416666668,-0.17292032814025882
-1.5747916666666666,-0.0035931396484375003,-1.5747915416666667,-0.1967115879058838
-1.5697916666666667,-0.0006195068359375001,-1.5697915416666668,-0.2095985202789307
-1.5647916666666666,-0.004584350585937501,-1.5647915416666667,-0.21752894020080568
-1.5597916666666667,-0.0016107177734375003,-1.5597915416666668,-0.20166810035705568
-1.5547916666666666,-0.011522827148437501,-1.5547915416666667,-0.19869419288635257
-1.5497916666666667,-0.009540405273437502,-1.5497915416666668,-0.19770289039611819
-1.5447916666666666,-0.0035931396484375003,-1.5447915416666667,-0.2056333103179932
-1.5397916666666667,-0.0035931396484375003,-1.5397915416666668,-0.20662461280822755
-1.5347916666666666,-0.007557983398437501,-1.5347915416666666,-0.1967115879058838
-1.5297916666666667,-0.004584350585937501,-1.5297915416666668,-0.21058982276916507
-1.5247916666666665,-0.0055755615234375005,-1.5247915416666666,-0.20265940284729006
-1.5197916666666667,-0.0016107177734375003,-1.5197915416666667,-0.18481595802307133
-1.5147916666666665,-0.007557983398437501,-1.5147915416666666,-0.1739116306304932
-1.5097916666666666,0.00037170410156250005,-1.5097915416666667,-0.16300730323791507
-1.5047916666666665,-0.009540405273437502,-1.5047915416666666,-0.1620160007476807
-1.4997916666666666,-0.0035931396484375003,-1.4997915416666667,-0.15507688331604005
-1.4947916666666665,-0.0026019287109375,-1.4947915416666666,-0.15408558082580567
-1.4897916666666666,-0.0055755615234375005,-1.4897915416666667,-0.16003339576721193
-1.4847916666666665,-0.0016107177734375003,-1.4847915416666666,-0.1610246982574463
-1.4797916666666666,-0.0026019287109375,-1.4797915416666667,-0.1491290683746338
-1.4747916666666665,-0.0026019287109375,-1.4747915416666666,-0.13525083351135256
-1.4697916666666666,-0.0006195068359375001,-1.4697915416666667,-0.11145957374572756
-1.4647916666666665,-0.004584350585937501,-1.4647915416666666,-0.09659003639221192
-1.4597916666666666,-0.0055755615234375005,-1.4597915416666667,-0.08469440650939943
-1.4547916666666667,-0.0006195068359375001,-1.4547915416666668,-0.09064222145080568
-1.4497916666666666,-0.0006195068359375001,-1.4497915416666667,-0.09460743141174317
-1.4447916666666667,-0.0006195068359375001,-1.4447915416666668,-0.0896509189605713
-1.4397916666666666,0.0033453369140625006,-1.4397915416666667,-0.09163352394104005
-1.4347916666666667,-0.0055755615234375005,-1.4347915416666668,-0.07973789405822755
-1.4297916666666666,-0.0035931396484375003,-1.4297915416666667,-0.07973789405822755
-1.4247916666666667,-0.0035931396484375003,-1.4247915416666668,-0.07973789405822755
-1.4197916666666666,-0.0026019287109375,-1.4197915416666667,-0.0817204990386963
-1.4147916666666667,-0.004584350585937501,-1.4147915416666668,-0.0658596591949463
-1.4097916666666666,-0.0055755615234375005,-1.4097915416666666,-0.061894449234008796
-1.4047916666666667,-0.0016107177734375003,-1.4047915416666668,-0.05495533180236817
-1.3997916666666665,-0.004584350585937501,-1.3997915416666666,-0.05297272682189942
-1.3947916666666667,-0.0026019287109375,-1.3947915416666667,-0.057929239273071295
-1.3897916666666665,-0.0035931396484375003,-1.3897915416666666,-0.06784226417541504
-1.3847916666666666,-0.004584350585937501,-1.3847915416666667,-0.06883356666564942
-1.3797916666666665,-0.004584350585937501,-1.3797915416666666,-0.05594663429260255
-1.3747916666666666,0.0023541259765625005,-1.3747915416666667,-0.057929239273071295
-1.3697916666666665,-0.0055755615234375005,-1.3697915416666666,-0.05495533180236817
-1.3647916666666666,-0.0016107177734375003,-1.3647915416666667,-0.04504230690002442
-1.3597916666666665,-0.0055755615234375005,-1.3597915416666666,-0.04801621437072755
-1.3547916666666666,-0.006566772460937501,-1.3547915416666667,-0.04900751686096192
-1.3497916666666665,-0.0055755615234375005,-1.3497915416666666,-0.05594663429260255
-1.3447916666666666,-0.0035931396484375003,-1.3447915416666667,-0.05297272682189942
-1.3397916666666665,-0.0026019287109375,-1.3397915416666666,-0.05099012184143067
-1.3347916666666666,-0.0035931396484375003,-1.3347915416666667,-0.04504230690002442
-1.3297916666666667,-0.008549194335937501,-1.3297915416666668,-0.03711188697814942
-1.3247916666666666,0.0013629150390625001,-1.3247915416666667,-0.032155374526977545
-1.3197916666666667,-0.0026019287109375,-1.3197915416666668,-0.04305970191955567
-1.3147916666666666,-0.0035931396484375003,-1.3147915416666667,-0.03711188697814942
-1.3097916666666667,-0.009540405273437502,-1.3097915416666668,-0.039094491958618166
-1.3047916666666666,-0.0035931396484375003,-1.3047915416666667,-0.03017276954650879
-1.2997916666666667,-0.0016107177734375003,-1.2997915416666668,-0.039094491958618166
-1.2947916666666666,-0.0035931396484375003,-1.2947915416666667,-0.05693793678283692
-1.2897916666666667,0.00037170410156250005,-1.2897915416666668,-0.04405100440979005
-1.2847916666666666,0.0013629150390625001,-1.2847915416666666,-0.04206839942932129
-1.2797916666666667,0.0023541259765625005,-1.2797915416666668,-0.03711188697814942
-1.2747916666666668,-0.004584350585937501,-1.2747915416666669,-0.03810318946838379
-1.2697916666666667,-0.0035931396484375003,-1.2697915416666667,-0.035129281997680666
-1.2647916666666668,-0.0026019287109375,-1.2647915416666669,-0.03314667701721192
-1.2597916666666666,-0.0055755615234375005,-1.2597915416666667,-0.02918146705627442
-1.2547916666666667,-0.006566772460937501,-1.2547915416666668,-0.03810318946838379
-1.2497916666666666,-0.0035931396484375003,-1.2497915416666667,-0.03711188697814942
-1.2447916666666667,-0.0026019287109375,-1.2447915416666668,-0.02620755958557129
-1.2397916666666668,-0.0026019287109375,-1.239791541666667,-0.027198862075805668
-1.2347916666666667,-0.004584350585937501,-1.2347915416666668,-0.03413797950744629
-1.2297916666666668,-0.0026019287109375,-1.229791541666667,-0.04405100440979005
-1.2247916666666667,-0.0035931396484375003,-1.2247915416666668,-0.0658596591949463
-1.2197916666666668,-0.004584350585937501,-1.219791541666667,-0.05892054176330567
-1.2147916666666667,0.0013629150390625001,-1.2147915416666668,-0.05693793678283692
-1.2097916666666668,0.0013629150390625001,-1.209791541666667,-0.04206839942932129
-1.2047916666666667,0.0013629150390625001,-1.2047915416666668,-0.02224234962463379
-1.1997916666666668,-0.0026019287109375,-1.199791541666667,-0.015303232192993167
-1.1947916666666667,-0.0006195068359375001,-1.1947915416666668,-0.02620755958557129
-1.1897916666666668,-0.004584350585937501,-1.189791541666667,-0.03413797950744629
-1.1847916666666667,-0.004584350585937501,-1.1847915416666668,-0.02819016456604004
-1.1797916666666668,-0.0006195068359375001,-1.1797915416666669,-0.02819016456604004
-1.1747916666666667,-0.007557983398437501,-1.1747915416666668,-0.027198862075805668
-1.1697916666666668,-0.0035931396484375003,-1.1697915416666669,-0.02422495460510254
-1.1647916666666667,-0.0035931396484375003,-1.1647915416666668,-0.04405100440979005
-1.1597916666666668,-0.0016107177734375003,-1.1597915416666669,-0.049998819351196294
-1.1547916666666667,-0.008549194335937501,-1.1547915416666668,-0.04504230690002442
-1.1497916666666668,-0.004584350585937501,-1.1497915416666669,-0.04405100440979005
-1.1447916666666667,0.0023541259765625005,-1.1447915416666667,-0.03314667701721192
-1.1397916666666668,-0.0016107177734375003,-1.1397915416666669,-0.03116407203674317
-1.1347916666666666,-0.004584350585937501,-1.1347915416666667,-0.02918146705627442
-1.1297916666666667,-0.0006195068359375001,-1.1297915416666668,-0.04206839942932129
-1.1247916666666666,-0.009540405273437502,-1.1247915416666667,-0.036120584487915046
-1.1197916666666667,-0.0055755615234375005,-1.1197915416666668,-0.02620755958557129
-1.1147916666666668,-0.0035931396484375003,-1.114791541666667,-0.004398904800415039
-1.1097916666666667,-0.0035931396484375003,-1.1097915416666668,0.006505422592163087
-1.1047916666666668,0.00037170410156250005,-1.104791541666667,0.011461935043334962
-1.0997916666666667,-0.0035931396484375003,-1.0997915416666668,0.006505422592163087
-1.0947916666666668,-0.007557983398437501,-1.094791541666667,0.009479330062866212
-1.0897916666666667,0.00037170410156250005,-1.0897915416666668,0.001548910140991211
-1.0847916666666668,0.0013629150390625001,-1.084791541666667,0.006505422592163087
-1.0797916666666667,-0.0055755615234375005,-1.0797915416666668,0.010470632553100587
-1.0747916666666668,-0.0016107177734375003,-1.074791541666667,0.011461935043334962
-1.0697916666666667,0.0023541259765625005,-1.0697915416666668,-0.010346719741821291
-1.0647916666666668,-0.0026019287109375,-1.064791541666667,-0.025216257095336918
-1.0597916666666667,-0.0055755615234375005,-1.0597915416666668,-0.021251047134399417
-1.0547916666666668,-0.0016107177734375003,-1.0547915416666669,-0.03116407203674317
-1.0497916666666667,-0.0026019287109375,-1.0497915416666668,-0.027198862075805668
-1.0447916666666668,-0.0035931396484375003,-1.0447915416666669,-0.040085794448852546
-1.0397916666666667,-0.004584350585937501,-1.0397915416666668,-0.053964029312133795
-1.0347916666666668,-0.0016107177734375003,-1.0347915416666669,-0.057929239273071295
-1.0297916666666667,0.00037170410156250005,-1.0297915416666668,-0.05594663429260255
-1.0247916666666668,-0.0035931396484375003,-1.0247915416666669,-0.04900751686096192
-1.0197916666666667,-0.008549194335937501,-1.0197915416666667,-0.04107709693908692
-1.0147916666666668,-0.006566772460937501,-1.0147915416666669,-0.03017276954650879
-1.0097916666666666,-0.0055755615234375005,-1.0097915416666667,-0.04107709693908692
-1.0047916666666667,-0.0006195068359375001,-1.0047915416666668,-0.04305970191955567
-0.9997916666666667,-0.0035931396484375003,-0.9997915416666667,-0.04702491188049317
-0.9947916666666667,-0.0035931396484375003,-0.9947915416666667,-0.04702491188049317
-0.9897916666666667,-0.0016107177734375003,-0.9897915416666667,-0.03116407203674317
-0.9847916666666667,-0.0006195068359375001,-0.9847915416666667,-0.03017276954650879
-0.9797916666666667,-0.0006195068359375001,-0.9797915416666667,-0.04405100440979005
-0.9747916666666667,-0.0006195068359375001,-0.9747915416666667,-0.040085794448852546
-0.9697916666666667,-0.0016107177734375003,-0.9697915416666667,-0.03810318946838379
-0.9647916666666667,-0.0026019287109375,-0.9647915416666667,-0.03810318946838379
-0.9597916666666667,-0.0035931396484375003,-0.9597915416666667,-0.040085794448852546
-0.9547916666666667,-0.0035931396484375003,-0.9547915416666667,-0.04206839942932129
-0.9497916666666667,-0.0026019287109375,-0.9497915416666667,-0.03017276954650879
-0.9447916666666667,-0.0016107177734375003,-0.9447915416666667,-0.004398904800415039
-0.9397916666666667,-0.0026019287109375,-0.9397915416666667,0.027322774887084966
-0.9347916666666667,-0.006566772460937501,-0.9347915416666667,0.07193138694763185
-0.9297916666666667,-0.006566772460937501,-0.9297915416666667,0.15321819114685062
-0.9247916666666667,-0.0016107177734375003,-0.9247915416666667,0.25036583518981936
-0.9197916666666668,-0.0026019287109375,-0.9197915416666668,0.2929918422698975
-0.9147916666666668,-0.0055755615234375005,-0.9147915416666668,0.2682092800140381
-0.9097916666666668,-0.0035931396484375003,-0.9097915416666668,0.1452877712249756
-0.9047916666666668,-0.004584350585937501,-0.9047915416666668,0.008488027572631836
-0.8997916666666668,-0.0026019287109375,-0.8997915416666667,-0.0817204990386963
-0.8947916666666668,-0.0055755615234375005,-0.8947915416666667,-0.1253378086090088
-0.8897916666666668,-0.008549194335937501,-0.8897915416666667,-0.14813776588439942
-0.8847916666666668,-0.008549194335937501,-0.8847915416666667,-0.1411986484527588
-0.8797916666666667,-0.0035931396484375003,-0.8797915416666667,-0.11145957374572756
-0.8747916666666667,-0.0035931396484375003,-0.8747915416666667,-0.09064222145080568
-0.8697916666666667,-0.0006195068359375001,-0.8697915416666667,-0.07180747413635255
-0.8647916666666667,-0.004584350585937501,-0.8647915416666667,-0.06288575172424317
-0.8597916666666667,-0.004584350585937501,-0.8597915416666667,-0.053964029312133795
-0.8547916666666667,0.0013629150390625001,-0.8547915416666667,-0.03413797950744629
-0.8497916666666667,-0.0026019287109375,-0.8497915416666667,-0.02025974464416504
-0.8447916666666667,-0.0026019287109375,-0.8447915416666667,-0.01629453468322754
-0.8397916666666667,-0.0035931396484375003,-0.8397915416666667,-0.017285837173461917
-0.8347916666666667,-0.0035931396484375003,-0.8347915416666667,-0.007372812271118165
-0.8297916666666667,-0.006566772460937501,-0.8297915416666667,0.000557607650756836
-0.8247916666666667,-0.0026019287109375,-0.8247915416666667,0.002540212631225586
-0.8197916666666667,-0.0035931396484375003,-0.8197915416666667,0.000557607650756836
-0.8147916666666667,-0.004584350585937501,-0.8147915416666667,-0.005390207290649414
-0.8097916666666667,-0.0055755615234375005,-0.8097915416666667,-0.0004336948394775391
-0.8047916666666667,-0.0006195068359375001,-0.8047915416666667,0.000557607650756836
-0.7997916666666667,-0.007557983398437501,-0.7997915416666667,0.009479330062866212
-0.7947916666666668,-0.006566772460937501,-0.7947915416666668,0.019392354965209965
-0.7897916666666668,-0.0016107177734375003,-0.7897915416666668,0.03128798484802246
-0.7847916666666668,-0.0006195068359375001,-0.7847915416666668,0.03029668235778809
-0.7797916666666668,-0.0055755615234375005,-0.7797915416666668,0.05408794212341309
-0.7747916666666668,-0.004584350585937501,-0.7747915416666667,0.052105337142944345
-0.7697916666666668,-0.0035931396484375003,-0.7697915416666667,0.04516621971130372
-0.7647916666666668,-0.007557983398437501,-0.7647915416666667,0.05706184959411622
-0.7597916666666668,-0.0055755615234375005,-0.7597915416666667,0.06300966453552247
-0.7547916666666667,-0.0055755615234375005,-0.7547915416666667,0.06697487449645997
-0.7497916666666667,-0.0055755615234375005,-0.7497915416666667,0.06102705955505372
-0.7447916666666667,-0.0026019287109375,-0.7447915416666667,0.0659835720062256
-0.7397916666666667,-0.0055755615234375005,-0.7397915416666667,0.0858096218109131
-0.7347916666666667,-0.0026019287109375,-0.7347915416666667,0.08382701683044434
-0.7297916666666667,-0.0035931396484375003,-0.7297915416666667,0.10761827659606935
-0.7247916666666667,-0.0055755615234375005,-0.7247915416666667,0.12447041893005373
-0.7197916666666667,-0.0035931396484375003,-0.7197915416666667,0.15520079612731935
-0.7147916666666667,0.0023541259765625005,-0.7147915416666667,0.15420949363708497
-0.7097916666666667,-0.007557983398437501,-0.7097915416666667,0.16213991355895999
-0.7047916666666667,-0.007557983398437501,-0.7047915416666667,0.17106163597106935
-0.6997916666666667,-0.0035931396484375003,-0.6997915416666667,0.18295726585388186
-0.6947916666666667,-0.0055755615234375005,-0.6947915416666667,0.19187898826599123
-0.6897916666666667,-0.004584350585937501,-0.6897915416666667,0.20179201316833498
-0.6847916666666667,-0.006566772460937501,-0.6847915416666667,0.19386159324646
-0.6797916666666667,0.0023541259765625005,-0.6797915416666667,0.17998335838317872
-0.6747916666666667,-0.0035931396484375003,-0.6747915416666667,0.17205293846130373
-0.6697916666666667,-0.0035931396484375003,-0.6697915416666667,0.16213991355895999
-0.6647916666666668,-0.007557983398437501,-0.6647915416666668,0.15420949363708497
-0.6597916666666668,-0.007557983398437501,-0.6597915416666668,0.1413225612640381
-0.6547916666666668,-0.006566772460937501,-0.6547915416666668,0.10662697410583498
-0.6497916666666668,-0.0055755615234375005,-0.6497915416666667,0.052105337142944345
-0.6447916666666668,-0.006566772460937501,-0.6447915416666667,0.029305379867553716
-0.6397916666666666,-0.008549194335937501,-0.6397915416666666,0.004522817611694337
-0.6347916666666666,-0.008549194335937501,-0.6347915416666666,-0.02025974464416504
-0.6297916666666666,-0.006566772460937501,-0.6297915416666666,-0.061894449234008796
-0.6247916666666666,-0.0055755615234375005,-0.6247915416666666,-0.10352915382385255
-0.6197916666666666,-0.0016107177734375003,-0.6197915416666666,-0.13128562355041506
-0.6147916666666666,-0.0026019287109375,-0.6147915416666666,-0.15904209327697755
-0.6097916666666666,-0.0026019287109375,-0.6097915416666666,-0.18382465553283694
-0.6047916666666666,-0.0006195068359375001,-0.6047915416666666,-0.19472898292541507
-0.5997916666666666,0.0013629150390625001,-0.5997915416666666,-0.19472898292541507
-0.5947916666666666,-0.0035931396484375003,-0.5947915416666666,-0.21058982276916507
-0.5897916666666666,-0.004584350585937501,-0.5897915416666666,-0.21653763771057133
-0.5847916666666667,-0.009540405273437502,-0.5847915416666667,-0.20166810035705568
-0.5797916666666667,-0.0006195068359375001,-0.5797915416666667,-0.20464200782775882
-0.5747916666666667,-0.006566772460937501,-0.5747915416666667,-0.18679856300354006
-0.5697916666666667,-0.0006195068359375001,-0.5697915416666667,-0.15606818580627443
-0.5647916666666667,-0.0016107177734375003,-0.5647915416666667,-0.14318125343322755
-0.5597916666666667,-0.009540405273437502,-0.5597915416666667,-0.16300730323791507
-0.5547916666666667,0.00037170410156250005,-0.5547915416666667,-0.17192902565002444
-0.5497916666666667,-0.0016107177734375003,-0.5497915416666667,-0.17292032814025882
-0.5447916666666667,-0.0035931396484375003,-0.5447915416666667,-0.16003339576721193
-0.5397916666666667,-0.0035931396484375003,-0.5397915416666667,-0.15111167335510256
-0.5347916666666667,-0.004584350585937501,-0.5347915416666666,-0.1293030185699463
-0.5297916666666667,-0.0055755615234375005,-0.5297915416666666,-0.12038129615783692
-0.5247916666666667,-0.0035931396484375003,-0.5247915416666666,-0.12434650611877443
-0.5197916666666667,-0.0016107177734375003,-0.5197915416666666,-0.12335520362854005
-0.5147916666666666,-0.0035931396484375003,-0.5147915416666666,-0.11938999366760256
-0.5097916666666666,-0.0055755615234375005,-0.5097915416666666,-0.09956394386291505
-0.5047916666666666,-0.007557983398437501,-0.5047915416666666,-0.10253785133361817
-0.49979166666666663,-0.0055755615234375005,-0.4997915416666666,-0.1055117588043213
-0.49479166666666663,-0.0026019287109375,-0.4947915416666666,-0.11145957374572756
-0.4897916666666667,0.0013629150390625001,-0.48979154166666666,-0.11641608619689943
-0.4847916666666667,-0.004584350585937501,-0.48479154166666666,-0.11245087623596192
-0.47979166666666667,-0.0006195068359375001,-0.47979154166666665,-0.09659003639221192
-0.47479166666666667,0.0023541259765625005,-0.47479154166666665,-0.07973789405822755
-0.46979166666666666,-0.0035931396484375003,-0.46979154166666665,-0.07577268409729004
-0.46479166666666666,-0.009540405273437502,-0.46479154166666664,-0.0817204990386963
-0.45979166666666665,-0.004584350585937501,-0.45979154166666664,-0.07577268409729004
-0.45479166666666665,-0.009540405273437502,-0.45479154166666663,-0.06685096168518068
-0.44979166666666665,-0.008549194335937501,-0.4497915416666666,-0.05991184425354005
-0.44479166666666664,-0.0035931396484375003,-0.4447915416666666,-0.06387705421447755
-0.43979166666666664,-0.008549194335937501,-0.4397915416666666,-0.06090314674377442
-0.43479166666666663,-0.0055755615234375005,-0.4347915416666666,-0.05892054176330567
-0.4297916666666666,-0.0006195068359375001,-0.4297915416666666,-0.05594663429260255
-0.4247916666666667,-0.007557983398437501,-0.42479154166666666,-0.05099012184143067
-0.4197916666666667,-0.0006195068359375001,-0.41979154166666666,-0.04801621437072755
-0.41479166666666667,-0.0055755615234375005,-0.41479154166666665,-0.06288575172424317
-0.40979166666666667,-0.008549194335937501,-0.40979154166666665,-0.05892054176330567
-0.40479166666666666,-0.0016107177734375003,-0.40479154166666664,-0.06883356666564942
-0.39979166666666666,-0.006566772460937501,-0.39979154166666664,-0.06486835670471192
-0.39479166666666665,-0.004584350585937501,-0.39479154166666663,-0.05297272682189942
-0.38979166666666665,-0.0035931396484375003,-0.38979154166666663,-0.046033609390258794
-0.38479166666666664,-0.0055755615234375005,-0.3847915416666666,-0.05198142433166505
-0.37979166666666664,-0.008549194335937501,-0.3797915416666666,-0.049998819351196294
-0.37479166666666663,-0.0016107177734375003,-0.3747915416666666,-0.03413797950744629
-0.36979166666666663,-0.0016107177734375003,-0.3697915416666666,-0.04206839942932129
-0.3647916666666666,-0.007557983398437501,-0.3647915416666666,-0.049998819351196294
-0.3597916666666667,-0.006566772460937501,-0.35979154166666666,-0.05297272682189942
-0.35479166666666667,-0.007557983398437501,-0.35479154166666665,-0.04801621437072755
-0.34979166666666667,-0.0016107177734375003,-0.34979154166666665,-0.04702491188049317
-0.34479166666666666,-0.007557983398437501,-0.34479154166666665,-0.049998819351196294
-0.33979166666666666,-0.0006195068359375001,-0.33979154166666664,-0.05693793678283692
-0.33479166666666665,-0.006566772460937501,-0.33479154166666664,-0.053964029312133795
-0.32979166666666665,-0.0055755615234375005,-0.32979154166666663,-0.05198142433166505
-0.32479166666666665,-0.004584350585937501,-0.3247915416666666,-0.03711188697814942
-0.3197916666666667,-0.004584350585937501,-0.3197915416666667,-0.02422495460510254
-0.3147916666666667,-0.006566772460937501,-0.3147915416666667,-0.021251047134399417
-0.3097916666666667,-0.0026019287109375,-0.30979154166666667,-0.02620755958557129
-0.3047916666666667,-0.0035931396484375003,-0.30479154166666667,-0.03413797950744629
-0.2997916666666667,-0.006566772460937501,-0.29979154166666666,-0.040085794448852546
-0.2947916666666667,-0.0055755615234375005,-0.29479154166666666,-0.035129281997680666
-0.28979166666666667,-0.004584350585937501,-0.28979154166666665,-0.025216257095336918
-0.28479166666666667,-0.0055755615234375005,-0.28479154166666665,-0.03017276954650879
-0.27979166666666666,-0.0006195068359375001,-0.27979154166666664,-0.040085794448852546
-0.2747916666666667,-0.0035931396484375003,-0.2747915416666667,-0.04305970191955567
-0.2697916666666667,-0.0035931396484375003,-0.2697915416666667,-0.039094491958618166
-0.2647916666666667,-0.006566772460937501,-0.2647915416666667,-0.036120584487915046
-0.2597916666666667,-0.011522827148437501,-0.2597915416666667,-0.02025974464416504
-0.2547916666666667,-0.0035931396484375003,-0.2547915416666667,-0.004398904800415039
-0.2497916666666667,-0.0026019287109375,-0.2497915416666667,-0.010346719741821291
-0.24479166666666669,-0.008549194335937501,-0.2447915416666667,-0.02819016456604004
-0.23979166666666668,-0.0055755615234375005,-0.2397915416666667,-0.03116407203674317
-0.23479166666666668,-0.0035931396484375003,-0.2347915416666667,-0.02224234962463379
-0.22979166666666667,-0.0055755615234375005,-0.22979154166666668,-0.02224234962463379
-0.2247916666666667,-0.006566772460937501,-0.2247915416666667,-0.02819016456604004
-0.2197916666666667,-0.0006195068359375001,-0.2197915416666667,-0.046033609390258794
-0.2147916666666667,-0.006566772460937501,-0.2147915416666667,-0.05495533180236817
-0.20979166666666668,-0.0026019287109375,-0.2097915416666667,-0.04206839942932129
-0.20479166666666668,-0.0035931396484375003,-0.2047915416666667,-0.03116407203674317
-0.19979166666666667,-0.004584350585937501,-0.19979154166666668,-0.012329324722290041
-0.1947916666666667,-0.006566772460937501,-0.1947915416666667,-0.007372812271118165
-0.1897916666666667,-0.0016107177734375003,-0.1897915416666667,-0.015303232192993167
-0.1847916666666667,-0.004584350585937501,-0.1847915416666667,-0.04504230690002442
-0.17979166666666668,-0.0006195068359375001,-0.1797915416666667,-0.04305970191955567
-0.17479166666666668,-0.0035931396484375003,-0.1747915416666667,-0.032155374526977545
-0.16979166666666667,0.00037170410156250005,-0.16979154166666668,-0.03314667701721192
-0.16479166666666667,-0.0035931396484375003,-0.16479154166666668,0.001548910140991211
-0.15979166666666667,-0.0006195068359375001,-0.15979154166666668,0.000557607650756836
-0.15479166666666666,-0.004584350585937501,-0.15479154166666667,-0.017285837173461917
-0.14979166666666666,0.00037170410156250005,-0.14979154166666667,-0.035129281997680666
-0.14479166666666665,-0.009540405273437502,-0.14479154166666666,-0.02918146705627442
-0.13979166666666668,-0.0026019287109375,-0.13979154166666669,-0.01629453468322754
-0.13479166666666667,0.00037170410156250005,-0.13479154166666668,-0.01629453468322754
-0.12979166666666667,-0.004584350585937501,-0.12979154166666668,-0.01827713966369629
-0.12479166666666666,-0.0035931396484375003,-0.12479154166666666,-0.02025974464416504
-0.11979166666666666,-0.0006195068359375001,-0.11979154166666665,-0.03116407203674317
-0.11479166666666667,-0.0026019287109375,-0.11479154166666666,-0.02918146705627442
-0.10979166666666666,-0.0035931396484375003,-0.10979154166666666,-0.019268442153930667
-0.10479166666666666,0.00037170410156250005,-0.10479154166666665,-0.014311929702758791
-0.09979166666666667,-0.004584350585937501,-0.09979154166666666,0.000557607650756836
-0.09479166666666666,0.00037170410156250005,-0.09479154166666666,0.009479330062866212
-0.08979166666666666,-0.004584350585937501,-0.08979154166666665,0.03128798484802246
-0.08479166666666667,-0.0006195068359375001,-0.08479154166666666,0.047148824691772465
-0.07979166666666668,-0.0016107177734375003,-0.07979154166666667,0.029305379867553716
-0.07479166666666667,-0.004584350585937501,-0.07479154166666667,0.005514120101928712
-0.06979166666666667,-0.0026019287109375,-0.06979154166666666,-0.0014249973297119144
-0.06479166666666666,-0.0035931396484375003,-0.06479154166666666,-0.005390207290649414
-0.059791666666666674,-0.0006195068359375001,-0.05979154166666668,-0.009355417251586916
-0.05479166666666667,0.0013629150390625001,-0.05479154166666667,-0.011338022232055666
-0.04979166666666667,-0.0055755615234375005,-0.049791541666666675,-0.02025974464416504
-0.04479166666666667,0.00037170410156250005,-0.04479154166666667,-0.02422495460510254
-0.03979166666666666,-0.0026019287109375,-0.039791541666666666,-0.02819016456604004
-0.034791666666666665,-0.006566772460937501,-0.03479154166666667,-0.035129281997680666
-0.029791666666666664,-0.0055755615234375005,-0.029791541666666664,-0.03711188697814942
-0.024791666666666667,-0.0006195068359375001,-0.024791541666666667,-0.01827713966369629
-0.01979166666666667,-0.0055755615234375005,-0.01979154166666667,-0.007372812271118165
-0.014791666666666668,-0.007557983398437501,-0.014791541666666668,-0.01827713966369629
-0.009791666666666667,-0.0055755615234375005,-0.009791541666666667,-0.03711188697814942
-0.004791666666666667,-0.008549194335937501,-0.004791541666666667,-0.04900751686096192
0.00020833333333333316,0.00037170410156250005,0.00020845833333333315,-0.057929239273071295
0.005208333333333333,-0.004584350585937501,0.005208458333333333,-0.05594663429260255
0.010208333333333333,-0.0026019287109375,0.010208458333333333,-0.05892054176330567
0.015208333333333332,-0.007557983398437501,0.015208458333333333,-0.05297272682189942
0.020208333333333335,-0.0006195068359375001,0.020208458333333335,-0.04206839942932129
0.025208333333333336,-0.007557983398437501,0.025208458333333336,-0.02620755958557129
0.030208333333333337,-0.004584350585937501,0.030208458333333337,-0.02422495460510254
0.035208333333333335,-0.004584350585937501,0.03520845833333333,-0.035129281997680666
0.04020833333333333,-0.0035931396484375003,0.04020845833333333,-0.03711188697814942
0.04520833333333333,-0.0006195068359375001,0.045208458333333326,-0.032155374526977545
0.050208333333333334,-0.004584350585937501,0.05020845833333333,-0.023233652114868168
0.05520833333333333,-0.0035931396484375003,0.05520845833333333,-0.02025974464416504
0.06020833333333333,-0.004584350585937501,0.060208458333333326,-0.017285837173461917
0.06520833333333333,-0.0016107177734375003,0.06520845833333333,-0.012329324722290041
0.07020833333333333,-0.0016107177734375003,0.07020845833333333,0.011461935043334962
0.07520833333333334,-0.0035931396484375003,0.07520845833333334,0.07094008445739747
0.08020833333333334,-0.0026019287109375,0.08020845833333334,0.15123558616638186
0.08520833333333334,-0.009540405273437502,0.08520845833333335,0.2374789028167725
0.09020833333333333,-0.006566772460937501,0.09020845833333334,0.29100923728942873
0.09520833333333334,-0.004584350585937501,0.09520845833333334,0.28407011985778813
0.10020833333333334,-0.0035931396484375003,0.10020845833333335,0.16412251853942872
0.10520833333333335,-0.008549194335937501,0.10520845833333335,-0.015303232192993167
0.11020833333333334,-0.006566772460937501,0.11020845833333334,-0.1293030185699463
0.11520833333333334,-0.0006195068359375001,0.11520845833333335,-0.17292032814025882
0.12020833333333335,-0.0035931396484375003,0.12020845833333335,-0.19175507545471193
0.12520833333333334,-0.0035931396484375003,0.12520845833333333,-0.15904209327697755
0.13020833333333334,-0.0016107177734375003,0.13020845833333333,-0.11145957374572756
0.13520833333333335,-0.004584350585937501,0.13520845833333334,-0.07081617164611817
0.14020833333333335,-0.0026019287109375,0.14020845833333334,-0.04801621437072755
0.14520833333333336,0.0013629150390625001,0.14520845833333335,-0.02819016456604004
0.15020833333333333,-0.0055755615234375005,0.15020845833333332,-0.02918146705627442
0.15520833333333334,0.0023541259765625005,0.15520845833333333,-0.027198862075805668
0.1602083333333333,-0.004584350585937501,0.1602084583333333,-0.02620755958557129
0.16520833333333332,-0.0016107177734375003,0.1652084583333333,-0.015303232192993167
0.17020833333333332,-0.0006195068359375001,0.1702084583333333,-0.0034076023101806646
0.17520833333333333,-0.006566772460937501,0.17520845833333332,0.002540212631225586
0.18020833333333333,-0.0016107177734375003,0.18020845833333332,0.010470632553100587
0.18520833333333334,-0.0016107177734375003,0.18520845833333333,0.015427145004272462
0.1902083333333333,-0.007557983398437501,0.1902084583333333,0.027322774887084966
0.19520833333333332,-0.0035931396484375003,0.1952084583333333,0.03128798484802246
0.20020833333333332,0.00037170410156250005,0.2002084583333333,0.027322774887084966
0.20520833333333333,0.00037170410156250005,0.20520845833333332,0.022366262435913088
0.21020833333333333,-0.0105316162109375,0.21020845833333332,0.03822710227966309
0.21520833333333333,-0.006566772460937501,0.21520845833333332,0.04120100975036622
0.22020833333333334,-0.0016107177734375003,0.22020845833333333,0.048140127182006845
0.22520833333333332,-0.011522827148437501,0.2252084583333333,0.047148824691772465
0.23020833333333332,-0.008549194335937501,0.2302084583333333,0.048140127182006845
0.23520833333333332,-0.0055755615234375005,0.23520845833333331,0.051114034652709965
0.24020833333333333,-0.0016107177734375003,0.24020845833333332,0.05706184959411622
0.24520833333333333,0.00037170410156250005,0.24520845833333332,0.05309663963317872
0.2502083333333333,0.00037170410156250005,0.25020845833333333,0.06697487449645997
0.2552083333333333,-0.008549194335937501,0.25520845833333333,0.07292268943786621
0.2602083333333333,0.0013629150390625001,0.26020845833333334,0.0818444118499756
0.2652083333333333,-0.004584350585937501,0.26520845833333334,0.10067915916442872
0.27020833333333333,-0.0105316162109375,0.27020845833333335,0.11852260398864747
0.27520833333333333,-0.006566772460937501,0.27520845833333335,0.13041823387145998
0.28020833333333334,-0.0016107177734375003,0.28020845833333335,0.12447041893005373
0.28520833333333334,-0.007557983398437501,0.28520845833333336,0.13041823387145998
0.29020833333333335,-0.0055755615234375005,0.29020845833333336,0.1413225612640381
0.29520833333333335,0.0023541259765625005,0.29520845833333337,0.15619209861755373
0.30020833333333335,-0.0026019287109375,0.3002084583333334,0.17205293846130373
0.3052083333333333,-0.0055755615234375005,0.3052084583333333,0.18890508079528812
0.3102083333333333,-0.0016107177734375003,0.3102084583333333,0.1928702907562256
0.3152083333333333,-0.0016107177734375003,0.31520845833333333,0.18394856834411624
0.3202083333333334,-0.007557983398437501,0.3202084583333334,0.20972243309021
0.3252083333333334,-0.0006195068359375001,0.3252084583333334,0.21765285301208498
0.3302083333333334,-0.0006195068359375001,0.3302084583333334,0.22360066795349123
0.3352083333333334,-0.0016107177734375003,0.3352084583333334,0.22657457542419437
0.3402083333333334,-0.006566772460937501,0.3402084583333334,0.20179201316833498
0.34520833333333334,-0.0055755615234375005,0.34520845833333336,0.20179201316833498
0.35020833333333334,-0.004584350585937501,0.35020845833333336,0.18890508079528812
0.35520833333333335,-0.0026019287109375,0.35520845833333337,0.1611486110687256
0.36020833333333335,-0.0026019287109375,0.36020845833333337,0.10662697410583498
0.36520833333333336,-0.006566772460937501,0.3652084583333334,0.052105337142944345
0.37020833333333336,-0.0006195068359375001,0.3702084583333334,0.010470632553100587
0.37520833333333337,-0.0006195068359375001,0.3752084583333334,-0.03116407203674317
0.38020833333333337,-0.004584350585937501,0.3802084583333334,-0.05892054176330567
0.3852083333333334,-0.0055755615234375005,0.3852084583333334,-0.09064222145080568
0.3902083333333334,-0.004584350585937501,0.3902084583333334,-0.10947696876525881
0.3952083333333334,-0.0016107177734375003,0.3952084583333334,-0.1411986484527588
0.4002083333333334,0.0013629150390625001,0.4002084583333334,-0.1649899082183838
0.4052083333333334,-0.008549194335937501,0.4052084583333334,-0.1778768405914307
0.41020833333333334,-0.0055755615234375005,0.41020845833333336,-0.17589423561096193
0.41520833333333335,-0.004584350585937501,0.41520845833333336,-0.1778768405914307
0.42020833333333335,-0.0026019287109375,0.42020845833333337,-0.20464200782775882
0.42520833333333335,-0.0035931396484375003,0.4252084583333334,-0.22050284767150882
0.43020833333333336,-0.0035931396484375003,0.4302084583333334,-0.22248545265197756
0.43520833333333336,-0.0055755615234375005,0.4352084583333334,-0.20464200782775882
0.44020833333333337,-0.004584350585937501,0.4402084583333334,-0.16697251319885256
0.4452083333333334,0.00037170410156250005,0.4452084583333334,-0.1461551609039307
0.4502083333333334,-0.0035931396484375003,0.4502084583333334,-0.15309427833557132
0.4552083333333334,-0.004584350585937501,0.4552084583333334,-0.16994642066955568
0.4602083333333334,-0.0035931396484375003,0.4602084583333334,-0.16994642066955568
0.4652083333333334,-0.0035931396484375003,0.4652084583333334,-0.16895511817932132
0.47020833333333334,-0.004584350585937501,0.47020845833333336,-0.15705948829650881
0.47520833333333334,-0.0006195068359375001,0.47520845833333336,-0.15210297584533694
0.48020833333333335,-0.006566772460937501,0.48020845833333337,-0.13525083351135256
0.48520833333333335,-0.0035931396484375003,0.48520845833333337,-0.12038129615783692
0.49020833333333336,-0.0026019287109375,0.4902084583333334,-0.11938999366760256
0.49520833333333336,-0.0006195068359375001,0.4952084583333334,-0.12732041358947754
0.5002083333333334,0.00037170410156250005,0.5002084583333334,-0.11938999366760256
0.5052083333333334,-0.0055755615234375005,0.5052084583333334,-0.11938999366760256
0.5102083333333334,-0.0026019287109375,0.5102084583333334,-0.10848566627502443
0.5152083333333334,-0.0026019287109375,0.5152084583333334,-0.10452045631408692
0.5202083333333334,0.00037170410156250005,0.5202084583333334,-0.09659003639221192
0.5252083333333334,-0.0006195068359375001,0.5252084583333334,-0.0777552890777588
0.5302083333333334,-0.004584350585937501,0.5302084583333334,-0.07676398658752442
0.5352083333333334,-0.006566772460937501,0.5352084583333334,-0.07478138160705568
0.5402083333333334,-0.0006195068359375001,0.5402084583333334,-0.07279877662658692
0.5452083333333334,0.00037170410156250005,0.5452084583333334,-0.06883356666564942
0.5502083333333334,-0.0016107177734375003,0.5502084583333334,-0.0658596591949463
0.5552083333333334,-0.0035931396484375003,0.5552084583333334,-0.06090314674377442
0.5602083333333334,-0.0026019287109375,0.5602084583333334,-0.06685096168518068
0.5652083333333334,-0.0055755615234375005,0.5652084583333334,-0.05594663429260255
0.5702083333333333,-0.0035931396484375003,0.5702084583333333,-0.03711188697814942
0.5752083333333333,-0.0006195068359375001,0.5752084583333333,-0.05297272682189942
0.5802083333333333,-0.007557983398437501,0.5802084583333333,-0.05892054176330567
0.5852083333333333,-0.004584350585937501,0.5852084583333333,-0.07081617164611817
0.5902083333333333,-0.0006195068359375001,0.5902084583333334,-0.06090314674377442
0.5952083333333333,-0.004584350585937501,0.5952084583333334,-0.06387705421447755
0.6002083333333333,-0.004584350585937501,0.6002084583333334,-0.05693793678283692
0.6052083333333333,-0.0006195068359375001,0.6052084583333334,-0.05297272682189942
0.6102083333333334,-0.006566772460937501,0.6102084583333334,-0.053964029312133795
0.6152083333333334,-0.0055755615234375005,0.6152084583333334,-0.04206839942932129
0.6202083333333334,-0.0016107177734375003,0.6202084583333334,-0.035129281997680666
0.6252083333333334,-0.007557983398437501,0.6252084583333334,-0.027198862075805668
0.6302083333333334,-0.0016107177734375003,0.6302084583333334,-0.04405100440979005
0.6352083333333334,-0.0055755615234375005,0.6352084583333334,-0.061894449234008796
0.6402083333333333,-0.006566772460937501,0.6402084583333333,-0.05991184425354005
0.6452083333333333,-0.0035931396484375003,0.6452084583333333,-0.05198142433166505
0.6502083333333333,0.0023541259765625005,0.6502084583333333,-0.03711188697814942
0.6552083333333333,-0.0016107177734375003,0.6552084583333333,-0.03116407203674317
0.6602083333333333,-0.0055755615234375005,0.6602084583333333,-0.03413797950744629
0.6652083333333333,0.0023541259765625005,0.6652084583333333,-0.040085794448852546
0.6702083333333333,-0.008549194335937501,0.6702084583333333,-0.05198142433166505
0.6752083333333333,-0.0016107177734375003,0.6752084583333333,-0.05693793678283692
0.6802083333333333,0.00037170410156250005,0.6802084583333333,-0.06288575172424317
0.6852083333333333,-0.0016107177734375003,0.6852084583333333,-0.06090314674377442
0.6902083333333333,-0.0055755615234375005,0.6902084583333333,-0.040085794448852546
0.6952083333333333,-0.008549194335937501,0.6952084583333333,-0.032155374526977545
0.7002083333333333,-0.006566772460937501,0.7002084583333333,-0.03314667701721192
0.7052083333333333,-0.004584350585937501,0.7052084583333333,-0.03810318946838379
0.7102083333333333,-0.0006195068359375001,0.7102084583333333,-0.035129281997680666
0.7152083333333333,-0.0006195068359375001,0.7152084583333334,-0.039094491958618166
0.7202083333333333,-0.0055755615234375005,0.7202084583333334,-0.04504230690002442
0.7252083333333333,-0.0006195068359375001,0.7252084583333334,-0.04900751686096192
0.7302083333333333,-0.0016107177734375003,0.7302084583333334,-0.04504230690002442
0.7352083333333334,-0.0055755615234375005,0.7352084583333334,-0.05297272682189942
0.7402083333333332,-0.009540405273437502,0.7402084583333333,-0.05099012184143067
0.7452083333333333,-0.0026019287109375,0.7452084583333333,-0.04405100440979005
0.7502083333333333,0.00037170410156250005,0.7502084583333333,-0.03810318946838379
0.7552083333333333,-0.0035931396484375003,0.7552084583333333,-0.032155374526977545
0.7602083333333333,-0.006566772460937501,0.7602084583333333,-0.02918146705627442
0.7652083333333333,-0.0006195068359375001,0.7652084583333333,-0.03413797950744629
0.7702083333333333,-0.004584350585937501,0.7702084583333333,-0.039094491958618166
0.7752083333333333,-0.007557983398437501,0.7752084583333333,-0.03314667701721192
0.7802083333333333,-0.0006195068359375001,0.7802084583333333,-0.03314667701721192
0.7852083333333333,-0.0016107177734375003,0.7852084583333333,-0.03017276954650879
0.7902083333333333,-0.0055755615234375005,0.7902084583333333,-0.03017276954650879
0.7952083333333333,-0.0055755615234375005,0.7952084583333333,-0.039094491958618166
0.8002083333333333,-0.004584350585937501,0.8002084583333333,-0.035129281997680666
0.8052083333333333,-0.0006195068359375001,0.8052084583333333,-0.035129281997680666
0.8102083333333333,-0.0035931396484375003,0.8102084583333333,-0.02819016456604004
0.8152083333333333,-0.0055755615234375005,0.8152084583333333,-0.036120584487915046
0.8202083333333333,-0.007557983398437501,0.8202084583333333,-0.04504230690002442
0.8252083333333333,-0.008549194335937501,0.8252084583333333,-0.027198862075805668
0.8302083333333333,-0.004584350585937501,0.8302084583333333,-0.02819016456604004
0.8352083333333333,-0.0035931396484375003,0.8352084583333333,-0.01827713966369629
0.8402083333333333,-0.0035931396484375003,0.8402084583333334,-0.019268442153930667
0.8452083333333333,-0.007557983398437501,0.8452084583333334,-0.02620755958557129
0.8502083333333333,-0.006566772460937501,0.8502084583333334,-0.035129281997680666
0.8552083333333333,-0.004584350585937501,0.8552084583333334,-0.03116407203674317
0.8602083333333334,-0.0006195068359375001,0.8602084583333334,-0.021251047134399417
0.8652083333333334,-0.0026019287109375,0.8652084583333334,-0.0063815097808837895
0.8702083333333333,-0.004584350585937501,0.8702084583333333,0.001548910140991211
0.8752083333333333,-0.008549194335937501,0.8752084583333333,0.009479330062866212
0.8802083333333333,-0.0006195068359375001,0.8802084583333333,0.014435842514038087
0.8852083333333333,-0.0055755615234375005,0.8852084583333333,0.019392354965209965
0.8902083333333333,-0.0055755615234375005,0.8902084583333333,0.008488027572631836
0.8952083333333333,-0.0006195068359375001,0.8952084583333333,0.0035315151214599613
0.9002083333333333,-0.0006195068359375001,0.9002084583333333,-0.025216257095336918
0.9052083333333333,-0.0026019287109375,0.9052084583333333,-0.04504230690002442
0.9102083333333333,-0.004584350585937501,0.9102084583333333,-0.04900751686096192
0.9152083333333333,-0.0006195068359375001,0.9152084583333333,-0.04107709693908692
0.9202083333333333,-0.004584350585937501,0.9202084583333333,-0.049998819351196294
0.9252083333333333,-0.0016107177734375003,0.9252084583333333,-0.05495533180236817
0.9302083333333333,-0.008549194335937501,0.9302084583333333,-0.05594663429260255
0.9352083333333333,-0.0035931396484375003,0.9352084583333333,-0.061894449234008796
0.9402083333333333,-0.0055755615234375005,0.9402084583333333,-0.07081617164611817
0.9452083333333333,-0.006566772460937501,0.9452084583333333,-0.0658596591949463
0.9502083333333333,-0.0026019287109375,0.9502084583333333,-0.05495533180236817
0.9552083333333333,-0.0035931396484375003,0.9552084583333333,-0.04305970191955567
0.9602083333333333,-0.0035931396484375003,0.9602084583333333,-0.04305970191955567
0.9652083333333333,-0.0055755615234375005,0.9652084583333334,-0.039094491958618166
0.9702083333333333,-0.0016107177734375003,0.9702084583333334,-0.040085794448852546
0.9752083333333333,-0.007557983398437501,0.9752084583333334,-0.04801621437072755
0.9802083333333333,-0.0055755615234375005,0.9802084583333334,-0.053964029312133795
0.9852083333333334,-0.006566772460937501,0.9852084583333334,-0.06090314674377442
0.9902083333333334,-0.007557983398437501,0.9902084583333334,-0.053964029312133795
0.9952083333333334,-0.0016107177734375003,0.9952084583333334,-0.04702491188049317
1.0002083333333334,0.00037170410156250005,1.0002084583333333,-0.03017276954650879
1.0052083333333333,-0.007557983398437501,1.0052084583333332,-0.023233652114868168
1.0102083333333334,-0.0055755615234375005,1.0102084583333333,-0.02918146705627442
1.0152083333333333,-0.0016107177734375003,1.0152084583333332,-0.040085794448852546
1.0202083333333334,0.00037170410156250005,1.0202084583333333,-0.03116407203674317
1.0252083333333333,-0.0055755615234375005,1.0252084583333332,0.004522817611694337
1.0302083333333334,-0.004584350585937501,1.0302084583333333,0.06300966453552247
1.0352083333333333,-0.0055755615234375005,1.0352084583333332,0.13636604881286624
1.0402083333333334,-0.006566772460937501,1.0402084583333333,0.22062676048278812
1.0452083333333333,-0.0035931396484375003,1.0452084583333332,0.281096212387085
1.0502083333333334,0.00037170410156250005,1.0502084583333333,0.28704402732849127
1.0552083333333333,-0.0016107177734375003,1.0552084583333332,0.16808772850036624
1.0602083333333332,-0.006566772460937501,1.060208458333333,0.008488027572631836
1.0652083333333333,-0.007557983398437501,1.0652084583333332,-0.1055117588043213
1.0702083333333332,-0.006566772460937501,1.0702084583333331,-0.13525083351135256
1.0752083333333333,-0.0035931396484375003,1.0752084583333332,-0.15705948829650881
1.0802083333333332,-0.0006195068359375001,1.0802084583333331,-0.14813776588439942
1.0852083333333333,-0.0055755615234375005,1.0852084583333332,-0.11938999366760256
1.0902083333333332,-0.007557983398437501,1.0902084583333331,-0.09460743141174317
1.0952083333333333,-0.0035931396484375003,1.0952084583333332,-0.06486835670471192
1.1002083333333332,-0.0016107177734375003,1.1002084583333331,-0.04702491188049317
1.1052083333333333,-0.0035931396484375003,1.1052084583333333,-0.04107709693908692
1.1102083333333332,-0.0035931396484375003,1.1102084583333331,-0.03810318946838379
1.1152083333333334,-0.006566772460937501,1.1152084583333333,-0.03810318946838379
1.1202083333333333,-0.0006195068359375001,1.1202084583333332,-0.021251047134399417
1.1252083333333334,-0.007557983398437501,1.1252084583333333,-0.0063815097808837895
1.1302083333333333,-0.0026019287109375,1.1302084583333332,0.002540212631225586
1.1352083333333334,-0.0026019287109375,1.1352084583333333,0.005514120101928712
1.1402083333333333,-0.006566772460937501,1.1402084583333332,-0.007372812271118165
1.1452083333333334,-0.006566772460937501,1.1452084583333333,-0.00836411476135254
1.1502083333333333,-0.0016107177734375003,1.1502084583333332,-0.019268442153930667
1.1552083333333334,-0.0035931396484375003,1.1552084583333333,-0.0063815097808837895
1.1602083333333333,-0.004584350585937501,1.1602084583333332,-0.007372812271118165
1.1652083333333334,0.00037170410156250005,1.1652084583333333,-0.0004336948394775391
1.1702083333333333,-0.0035931396484375003,1.1702084583333332,0.015427145004272462
1.1752083333333334,-0.0026019287109375,1.1752084583333333,0.029305379867553716
1.1802083333333333,-0.0055755615234375005,1.1802084583333332,0.04516621971130372
1.1852083333333334,-0.0026019287109375,1.1852084583333333,0.052105337142944345
1.1902083333333333,-0.008549194335937501,1.1902084583333332,0.04913142967224122
1.1952083333333332,-0.0016107177734375003,1.1952084583333331,0.04516621971130372
1.2002083333333333,-0.0055755615234375005,1.2002084583333332,0.04913142967224122
1.2052083333333332,-0.0016107177734375003,1.2052084583333331,0.07094008445739747
1.2102083333333333,-0.004584350585937501,1.2102084583333332,0.08680092430114747
1.2152083333333332,-0.004584350585937501,1.2152084583333331,0.0778792018890381
1.2202083333333333,-0.007557983398437501,1.2202084583333332,0.07094008445739747
1.2252083333333332,-0.007557983398437501,1.2252084583333331,0.07887050437927247
1.2302083333333333,0.00037170410156250005,1.2302084583333333,0.07490529441833498
1.2352083333333332,-0.0055755615234375005,1.2352084583333331,0.07887050437927247
1.2402083333333334,0.0013629150390625001,1.2402084583333333,0.11554869651794435
1.2452083333333333,-0.0035931396484375003,1.2452084583333332,0.13140953636169436
1.2502083333333334,0.0013629150390625001,1.2502084583333333,0.14330516624450684
1.2552083333333333,-0.007557983398437501,1.2552084583333332,0.15916600608825685
1.2602083333333334,-0.0035931396484375003,1.2602084583333333,0.16412251853942872
1.2652083333333333,-0.0006195068359375001,1.2652084583333332,0.18890508079528812
1.2702083333333334,0.0013629150390625001,1.2702084583333333,0.20476592063903812
1.2752083333333333,-0.0035931396484375003,1.2752084583333332,0.20179201316833498
1.2802083333333334,-0.004584350585937501,1.2802084583333333,0.19386159324646
1.2852083333333335,-0.0016107177734375003,1.2852084583333334,0.1809746608734131
1.2902083333333334,-0.0055755615234375005,1.2902084583333333,0.18890508079528812
1.2952083333333335,-0.0055755615234375005,1.2952084583333334,0.17601814842224123
1.3002083333333334,-0.009540405273437502,1.3002084583333333,0.16412251853942872
1.3052083333333335,-0.0026019287109375,1.3052084583333334,0.1452877712249756
1.3102083333333334,-0.0006195068359375001,1.3102084583333333,0.13438344383239748
1.3152083333333335,-0.004584350585937501,1.3152084583333334,0.0977052516937256
1.3202083333333334,-0.0026019287109375,1.3202084583333333,0.055079244613647466
1.3252083333333335,-0.0016107177734375003,1.3252084583333334,0.008488027572631836
1.3302083333333334,-0.0026019287109375,1.3302084583333333,-0.02819016456604004
1.3352083333333336,0.00037170410156250005,1.3352084583333335,-0.06784226417541504
1.3402083333333334,-0.006566772460937501,1.3402084583333334,-0.10154654884338381
1.3452083333333336,-0.0006195068359375001,1.3452084583333335,-0.12236390113830568
1.3502083333333335,-0.0026019287109375,1.3502084583333334,-0.1461551609039307
1.3552083333333333,-0.0026019287109375,1.3552084583333333,-0.16796381568908694
1.3602083333333335,-0.0006195068359375001,1.3602084583333334,-0.1897724704742432
1.3652083333333334,0.0033453369140625006,1.3652084583333333,-0.19968549537658695
1.3702083333333335,-0.0026019287109375,1.3702084583333334,-0.1967115879058838
1.3752083333333334,-0.0016107177734375003,1.3752084583333333,-0.19770289039611819
1.3802083333333335,0.00037170410156250005,1.3802084583333334,-0.1967115879058838
1.3852083333333334,0.00037170410156250005,1.3852084583333333,-0.1927463779449463
1.3902083333333335,-0.0016107177734375003,1.3902084583333334,-0.18679856300354006
1.3952083333333334,-0.0016107177734375003,1.3952084583333333,-0.18481595802307133
1.4002083333333335,-0.0006195068359375001,1.4002084583333334,-0.1778768405914307
1.4052083333333334,-0.0035931396484375003,1.4052084583333333,-0.17886814308166507
1.4102083333333335,-0.0026019287109375,1.4102084583333334,-0.16598121070861818
1.4152083333333334,-0.0006195068359375001,1.4152084583333333,-0.15507688331604005
1.4202083333333335,-0.008549194335937501,1.4202084583333334,-0.13227692604064942
1.4252083333333334,0.0013629150390625001,1.4252084583333333,-0.13029432106018068
1.4302083333333335,-0.0006195068359375001,1.4302084583333334,-0.1293030185699463
1.4352083333333334,-0.0035931396484375003,1.4352084583333333,-0.1332682285308838
1.4402083333333335,-0.0026019287109375,1.4402084583333334,-0.13425953102111818
1.4452083333333334,-0.0016107177734375003,1.4452084583333333,-0.12335520362854005
1.4502083333333335,-0.0055755615234375005,1.4502084583333334,-0.10848566627502443
1.4552083333333334,-0.0016107177734375003,1.4552084583333333,-0.12236390113830568
1.4602083333333336,-0.0035931396484375003,1.4602084583333335,-0.1332682285308838
1.4652083333333334,-0.0035931396484375003,1.4652084583333334,-0.12831171607971192
1.4702083333333336,0.00037170410156250005,1.4702084583333335,-0.11046827125549318
1.4752083333333335,-0.0026019287109375,1.4752084583333334,-0.1134421787261963
1.4802083333333333,-0.0105316162109375,1.4802084583333333,-0.10650306129455568
1.4852083333333335,0.00037170410156250005,1.4852084583333334,-0.09064222145080568
1.4902083333333334,-0.0006195068359375001,1.4902084583333333,-0.05991184425354005
1.4952083333333335,0.0013629150390625001,1.4952084583333334,-0.05892054176330567
1.5002083333333334,0.00037170410156250005,1.5002084583333333,-0.07973789405822755
1.5052083333333335,-0.0035931396484375003,1.5052084583333334,-0.0896509189605713
1.5102083333333334,0.00037170410156250005,1.5102084583333333,-0.09659003639221192
1.5152083333333335,-0.0006195068359375001,1.5152084583333334,-0.0896509189605713
1.5202083333333334,-0.0016107177734375003,1.5202084583333333,-0.0856857089996338
1.5252083333333335,-0.0035931396484375003,1.5252084583333334,-0.0817204990386963
1.5302083333333334,-0.0026019287109375,1.5302084583333333,-0.057929239273071295
1.5352083333333335,-0.0026019287109375,1.5352084583333334,-0.046033609390258794
1.5402083333333334,0.0053277587890625,1.5402084583333333,-0.04206839942932129
1.5452083333333335,-0.004584350585937501,1.5452084583333334,-0.039094491958618166
1.5502083333333334,0.0013629150390625001,1.5502084583333333,-0.05099012184143067
1.5552083333333335,-0.0055755615234375005,1.5552084583333334,-0.04900751686096192
1.5602083333333334,-0.0016107177734375003,1.5602084583333333,-0.046033609390258794
1.5652083333333335,0.00037170410156250005,1.5652084583333334,-0.040085794448852546
1.5702083333333334,-0.004584350585937501,1.5702084583333333,-0.04702491188049317
1.5752083333333335,-0.0016107177734375003,1.5752084583333334,-0.03810318946838379
1.5802083333333334,-0.0026019287109375,1.5802084583333333,-0.035129281997680666
1.5852083333333336,-0.0016107177734375003,1.5852084583333335,-0.023233652114868168
1.5902083333333334,-0.0035931396484375003,1.5902084583333334,-0.049998819351196294
1.5952083333333336,-0.004584350585937501,1.5952084583333335,-0.061894449234008796
1.6002083333333335,0.0023541259765625005,1.6002084583333334,-0.05892054176330567
1.6052083333333336,-0.004584350585937501,1.6052084583333335,-0.05991184425354005
1.6102083333333335,0.0013629150390625001,1.6102084583333334,-0.05099012184143067
1.6152083333333334,-0.0055755615234375005,1.6152084583333333,-0.04702491188049317
1.6202083333333335,0.00037170410156250005,1.6202084583333334,-0.046033609390258794
1.6252083333333334,-0.004584350585937501,1.6252084583333333,-0.04801621437072755
1.6302083333333335,-0.0055755615234375005,1.6302084583333334,-0.03711188697814942
1.6352083333333334,-0.0026019287109375,1.6352084583333333,-0.03711188697814942
1.6402083333333335,-0.006566772460937501,1.6402084583333334,-0.032155374526977545
1.6452083333333334,-0.0055755615234375005,1.6452084583333333,-0.03314667701721192
1.6502083333333335,-0.0055755615234375005,1.6502084583333334,-0.032155374526977545
1.6552083333333334,-0.0016107177734375003,1.6552084583333333,-0.04900751686096192
1.6602083333333335,-0.004584350585937501,1.6602084583333334,-0.061894449234008796
1.6652083333333334,0.0013629150390625001,1.6652084583333333,-0.05892054176330567
1.6702083333333335,-0.0016107177734375003,1.6702084583333334,-0.046033609390258794
1.6752083333333334,-0.007557983398437501,1.6752084583333333,-0.04702491188049317
1.6802083333333335,-0.0016107177734375003,1.6802084583333334,-0.049998819351196294
1.6852083333333334,0.00037170410156250005,1.6852084583333333,-0.04107709693908692
1.6902083333333335,-0.004584350585937501,1.6902084583333334,-0.040085794448852546
1.6952083333333334,-0.0016107177734375003,1.6952084583333333,-0.02918146705627442
1.7002083333333335,-0.0055755615234375005,1.7002084583333334,-0.03314667701721192
1.7052083333333334,-0.0026019287109375,1.7052084583333333,-0.02819016456604004
1.7102083333333336,0.00037170410156250005,1.7102084583333335,-0.02918146705627442
1.7152083333333334,-0.0035931396484375003,1.7152084583333334,-0.02224234962463379
1.7202083333333336,-0.004584350585937501,1.7202084583333335,-0.010346719741821291
1.7252083333333335,0.0013629150390625001,1.7252084583333334,-0.01827713966369629
1.7302083333333336,0.0013629150390625001,1.7302084583333335,-0.02819016456604004
1.7352083333333335,-0.004584350585937501,1.7352084583333334,-0.03116407203674317
1.7402083333333334,-0.004584350585937501,1.7402084583333333,-0.03711188697814942
1.7452083333333335,-0.0035931396484375003,1.7452084583333334,-0.036120584487915046
1.7502083333333334,-0.0055755615234375005,1.7502084583333333,-0.035129281997680666
1.7552083333333335,-0.0006195068359375001,1.7552084583333334,-0.039094491958618166
1.7602083333333334,-0.0035931396484375003,1.7602084583333333,-0.04206839942932129
1.7652083333333335,-0.0026019287109375,1.7652084583333334,-0.04305970191955567
1.7702083333333334,0.0013629150390625001,1.7702084583333333,-0.04801621437072755
1.7752083333333335,-0.0035931396484375003,1.7752084583333334,-0.04405100440979005
1.7802083333333334,-0.0016107177734375003,1.7802084583333333,-0.03314667701721192
1.7852083333333335,-0.0035931396484375003,1.7852084583333334,-0.02620755958557129
1.7902083333333334,-0.0055755615234375005,1.7902084583333333,-0.01629453468322754
1.7952083333333335,-0.0026019287109375,1.7952084583333334,-0.03017276954650879
1.8002083333333334,-0.0026019287109375,1.8002084583333333,-0.03711188697814942
1.8052083333333335,0.0033453369140625006,1.8052084583333334,-0.025216257095336918
1.8102083333333334,-0.0016107177734375003,1.8102084583333333,-0.032155374526977545
1.8152083333333335,-0.008549194335937501,1.8152084583333334,-0.02620755958557129
1.8202083333333334,-0.0055755615234375005,1.8202084583333333,-0.03017276954650879
1.8252083333333335,0.0013629150390625001,1.8252084583333334,-0.035129281997680666
1.8302083333333334,-0.006566772460937501,1.8302084583333333,-0.046033609390258794
1.8352083333333336,-0.0035931396484375003,1.8352084583333335,-0.04405100440979005
1.8402083333333334,-0.0035931396484375003,1.8402084583333334,-0.03413797950744629
1.8452083333333336,-0.0026019287109375,1.8452084583333335,-0.02819016456604004
1.8502083333333335,-0.0055755615234375005,1.8502084583333334,-0.03116407203674317
1.8552083333333336,-0.0055755615234375005,1.8552084583333335,-0.02918146705627442
1.8602083333333335,0.0023541259765625005,1.8602084583333334,-0.021251047134399417
1.8652083333333334,-0.0035931396484375003,1.8652084583333333,-0.012329324722290041
1.8702083333333335,-0.007557983398437501,1.8702084583333334,-0.00836411476135254
1.8752083333333334,-0.004584350585937501,1.8752084583333333,-0.009355417251586916
1.8802083333333335,-0.012514038085937502,1.8802084583333334,-0.00836411476135254
1.8852083333333334,-0.0026019287109375,1.8852084583333333,-0.0034076023101806646
1.8902083333333335,-0.0035931396484375003,1.8902084583333334,0.007496725082397462
1.8952083333333334,0.0013629150390625001,1.8952084583333333,0.017409749984741214
1.9002083333333335,-0.004584350585937501,1.9002084583333334,0.02633147239685059
1.9052083333333334,-0.0016107177734375003,1.9052084583333333,0.012453237533569337
1.9102083333333335,-0.0035931396484375003,1.9102084583333334,0.000557607650756836
1.9152083333333334,-0.004584350585937501,1.9152084583333333,-0.009355417251586916
1.9202083333333335,-0.0026019287109375,1.9202084583333334,-0.03413797950744629
1.9252083333333334,-0.0016107177734375003,1.9252084583333333,-0.040085794448852546
1.9302083333333335,-0.0026019287109375,1.9302084583333334,-0.040085794448852546
1.9352083333333334,-0.0055755615234375005,1.9352084583333333,-0.03711188697814942
1.9402083333333335,-0.004584350585937501,1.9402084583333334,-0.02620755958557129
1.9452083333333334,-0.0035931396484375003,1.9452084583333333,-0.02224234962463379
1.9502083333333335,-0.0055755615234375005,1.9502084583333334,-0.03314667701721192
1.9552083333333334,-0.006566772460937501,1.9552084583333333,-0.039094491958618166
1.9602083333333336,-0.0035931396484375003,1.9602084583333335,-0.05297272682189942
1.9652083333333334,0.004336547851562501,1.9652084583333334,-0.053964029312133795
1.9702083333333336,-0.004584350585937501,1.9702084583333335,-0.05495533180236817
1.9752083333333335,-0.0026019287109375,1.9752084583333334,-0.05297272682189942
1.9802083333333336,-0.0035931396484375003,1.9802084583333335,-0.053964029312133795
1.9852083333333335,-0.004584350585937501,1.9852084583333334,-0.05693793678283692
1.9902083333333336,-0.0026019287109375,1.9902084583333335,-0.05594663429260255
1.9952083333333335,-0.004584350585937501,1.9952084583333334,-0.05198142433166505
2.0002083333333336,0.00037170410156250005,2.0002084583333337,-0.053964029312133795
2.0052083333333335,-0.004584350585937501,2.0052084583333336,-0.03314667701721192
2.0102083333333334,-0.0026019287109375,2.0102084583333335,-0.04107709693908692
2.0152083333333333,-0.004584350585937501,2.0152084583333334,-0.04305970191955567
2.0202083333333336,-0.0105316162109375,2.0202084583333337,-0.05099012184143067
2.0252083333333335,-0.0105316162109375,2.0252084583333336,-0.04702491188049317
2.0302083333333334,-0.007557983398437501,2.0302084583333335,-0.040085794448852546
2.0352083333333333,-0.006566772460937501,2.0352084583333334,-0.03711188697814942
2.0402083333333336,-0.008549194335937501,2.0402084583333338,-0.005390207290649414
2.0452083333333335,-0.0035931396484375003,2.0452084583333336,0.03525319480895996
2.0502083333333334,-0.0016107177734375003,2.0502084583333335,0.09274873924255372
2.0552083333333333,-0.0055755615234375005,2.0552084583333334,0.17304424095153811
2.0602083333333336,-0.0006195068359375001,2.0602084583333338,0.25631365013122565
2.0652083333333335,-0.0006195068359375001,2.0652084583333337,0.2989396572113037
2.0702083333333334,-0.0055755615234375005,2.0702084583333336,0.24838323020935063
2.0752083333333333,0.0013629150390625001,2.0752084583333334,0.11257478904724122
2.0802083333333337,-0.0006195068359375001,2.080208458333334,-0.032155374526977545
2.0852083333333336,-0.008549194335937501,2.0852084583333337,-0.11740738868713381
2.0902083333333334,-0.006566772460937501,2.0902084583333336,-0.14318125343322755
2.0952083333333333,-0.004584350585937501,2.0952084583333335,-0.14714646339416507
2.1002083333333337,-0.0035931396484375003,2.100208458333334,-0.1253378086090088
2.1052083333333336,-0.0035931396484375003,2.1052084583333337,-0.08865961647033692
2.1102083333333335,-0.004584350585937501,2.1102084583333336,-0.05991184425354005
2.1152083333333334,0.0013629150390625001,2.1152084583333335,-0.04305970191955567
2.1202083333333333,-0.007557983398437501,2.1202084583333334,-0.040085794448852546
2.1252083333333336,-0.0026019287109375,2.1252084583333337,-0.03017276954650879
2.1302083333333335,-0.0026019287109375,2.1302084583333336,-0.02025974464416504
2.1352083333333334,0.00037170410156250005,2.1352084583333335,-0.017285837173461917
2.1402083333333333,-0.0035931396484375003,2.1402084583333334,-0.01827713966369629
2.1452083333333336,-0.0026019287109375,2.1452084583333337,-0.023233652114868168
2.1502083333333335,-0.0016107177734375003,2.1502084583333336,-0.012329324722290041
2.1552083333333334,-0.0016107177734375003,2.1552084583333335,-0.011338022232055666
2.1602083333333333,0.00037170410156250005,2.1602084583333334,-0.012329324722290041
2.1652083333333336,-0.0035931396484375003,2.1652084583333338,-0.00836411476135254
2.1702083333333335,-0.0016107177734375003,2.1702084583333336,-0.00836411476135254
2.1752083333333334,-0.004584350585937501,2.1752084583333335,0.011461935043334962
2.1802083333333333,-0.0035931396484375003,2.1802084583333334,0.011461935043334962
2.1852083333333336,-0.0026019287109375,2.1852084583333338,0.022366262435913088
2.1902083333333335,-0.004584350585937501,2.1902084583333337,0.019392354965209965
2.1952083333333334,-0.004584350585937501,2.1952084583333336,0.017409749984741214
2.2002083333333333,0.00037170410156250005,2.2002084583333334,0.021374959945678715
2.2052083333333337,0.00037170410156250005,2.205208458333334,0.033270589828491216
2.2102083333333336,-0.0006195068359375001,2.2102084583333337,0.052105337142944345
2.2152083333333334,0.0013629150390625001,2.2152084583333336,0.05706184959411622
2.2202083333333333,-0.0016107177734375003,2.2202084583333335,0.06201836204528809
2.2252083333333337,-0.0006195068359375001,2.225208458333334,0.06300966453552247
2.2302083333333336,-0.0026019287109375,2.2302084583333337,0.0778792018890381
2.2352083333333335,-0.004584350585937501,2.2352084583333336,0.07193138694763185
2.2402083333333334,-0.0026019287109375,2.2402084583333335,0.06895747947692872
2.2452083333333337,-0.007557983398437501,2.245208458333334,0.0699487819671631
2.2502083333333336,-0.004584350585937501,2.2502084583333337,0.07688789939880372
2.2552083333333335,-0.008549194335937501,2.2552084583333336,0.0977052516937256
2.2602083333333334,-0.0055755615234375005,2.2602084583333335,0.12843562889099122
2.2652083333333333,-0.006566772460937501,2.2652084583333334,0.14330516624450684
2.2702083333333336,-0.006566772460937501,2.2702084583333337,0.1492529811859131
2.2752083333333335,-0.004584350585937501,2.2752084583333336,0.16015730857849123
2.2802083333333334,-0.006566772460937501,2.2802084583333335,0.16313121604919437
2.2852083333333333,-0.0035931396484375003,2.2852084583333334,0.17601814842224123
2.2902083333333336,0.0013629150390625001,2.2902084583333338,0.1898963832855225
2.2952083333333335,0.0013629150390625001,2.2952084583333336,0.20674852561950685
2.3002083333333334,-0.004584350585937501,2.3002084583333335,0.20674852561950685
2.3052083333333333,-0.007557983398437501,2.3052084583333334,0.17899205589294437
2.3102083333333336,-0.006566772460937501,2.3102084583333338,0.16808772850036624
2.3152083333333335,-0.0006195068359375001,2.3152084583333337,0.15222688865661624
2.3202083333333334,-0.0006195068359375001,2.3202084583333336,0.1423138637542725
2.3252083333333333,-0.0026019287109375,2.3252084583333334,0.13636604881286624
2.3302083333333337,-0.004584350585937501,2.330208458333334,0.11753130149841311
2.3352083333333336,-0.0055755615234375005,2.3352084583333337,0.0778792018890381
2.3402083333333334,-0.0026019287109375,2.3402084583333336,0.03128798484802246
2.3452083333333333,-0.0016107177734375003,2.3452084583333335,-0.010346719741821291
2.3502083333333337,-0.0006195068359375001,2.350208458333334,-0.06090314674377442
2.3552083333333336,-0.006566772460937501,2.3552084583333337,-0.10055524635314943
2.3602083333333335,-0.0026019287109375,2.3602084583333336,-0.11839869117736818
2.3652083333333334,-0.0035931396484375003,2.3652084583333335,-0.1263291110992432
2.3702083333333337,-0.004584350585937501,2.370208458333334,-0.13723343849182132
2.3752083333333336,-0.0026019287109375,2.3752084583333337,-0.1649899082183838
2.3802083333333335,0.0023541259765625005,2.3802084583333336,-0.18283335304260256
2.3852083333333334,-0.0055755615234375005,2.3852084583333335,-0.19770289039611819
2.3902083333333333,-0.0006195068359375001,2.3902084583333334,-0.19472898292541507
2.3952083333333336,-0.0035931396484375003,2.3952084583333337,-0.18382465553283694
2.4002083333333335,-0.0055755615234375005,2.4002084583333336,-0.18679856300354006
2.4052083333333334,-0.0006195068359375001,2.4052084583333335,-0.20265940284729006
2.4102083333333333,-0.004584350585937501,2.4102084583333334,-0.2056333103179932
2.4152083333333336,-0.0016107177734375003,2.4152084583333338,-0.19572028541564943
2.4202083333333335,-0.0026019287109375,2.4202084583333336,-0.1967115879058838
2.4252083333333334,-0.006566772460937501,2.4252084583333335,-0.18283335304260256
2.4302083333333333,-0.0055755615234375005,2.4302084583333334,-0.17192902565002444
2.4352083333333336,-0.004584350585937501,2.4352084583333338,-0.15210297584533694
2.4402083333333335,0.0033453369140625006,2.4402084583333337,-0.15309427833557132
2.4452083333333334,0.00037170410156250005,2.4452084583333336,-0.14813776588439942
2.4502083333333333,-0.0016107177734375003,2.4502084583333334,-0.1461551609039307
2.4552083333333337,0.00037170410156250005,2.455208458333334,-0.13128562355041506
2.4602083333333336,-0.0026019287109375,2.4602084583333337,-0.1332682285308838
2.4652083333333334,-0.0026019287109375,2.4652084583333336,-0.1253378086090088
2.4702083333333333,0.00037170410156250005,2.4702084583333335,-0.12434650611877443
2.4752083333333337,-0.0035931396484375003,2.475208458333334,-0.1134421787261963
2.4802083333333336,0.00037170410156250005,2.4802084583333337,-0.10947696876525881
2.4852083333333335,0.0013629150390625001,2.4852084583333336,-0.1055117588043213
2.4902083333333334,-0.0035931396484375003,2.4902084583333335,-0.10352915382385255
2.4952083333333337,0.0033453369140625006,2.495208458333334,-0.1055117588043213
2.5002083333333336,-0.008549194335937501,2.5002084583333337,-0.08865961647033692
2.5052083333333335,-0.0035931396484375003,2.5052084583333336,-0.0737900791168213
2.5102083333333334,-0.0026019287109375,2.5102084583333335,-0.07279877662658692
2.5152083333333333,0.0013629150390625001,2.5152084583333334,-0.0817204990386963
2.5202083333333336,-0.0006195068359375001,2.5202084583333337,-0.08667701148986817
2.5252083333333335,-0.0035931396484375003,2.5252084583333336,-0.06883356666564942
2.5302083333333334,0.0013629150390625001,2.5302084583333335,-0.04305970191955567
2.5352083333333333,-0.0035931396484375003,2.5352084583333334,-0.04405100440979005
2.5402083333333336,-0.006566772460937501,2.5402084583333338,-0.039094491958618166
2.5452083333333335,0.0033453369140625006,2.5452084583333336,-0.040085794448852546
2.5502083333333334,-0.0016107177734375003,2.5502084583333335,-0.04206839942932129
2.5552083333333333,-0.004584350585937501,2.5552084583333334,-0.05099012184143067
2.560208333333333,0.00037170410156250005,2.5602084583333333,-0.05099012184143067
2.565208333333333,-0.0026019287109375,2.565208458333333,-0.04405100440979005
2.570208333333333,-0.0055755615234375005,2.570208458333333,-0.040085794448852546
2.5752083333333333,-0.0016107177734375003,2.5752084583333334,-0.04801621437072755
2.580208333333333,-0.0006195068359375001,2.5802084583333333,-0.05099012184143067
2.585208333333333,-0.004584350585937501,2.5852084583333332,-0.05198142433166505
2.590208333333333,-0.0006195068359375001,2.590208458333333,-0.040085794448852546
2.5952083333333333,-0.0006195068359375001,2.5952084583333335,-0.04107709693908692
2.6002083333333332,-0.0026019287109375,2.6002084583333334,-0.05099012184143067
2.605208333333333,-0.0026019287109375,2.6052084583333333,-0.05495533180236817
2.610208333333333,-0.0016107177734375003,2.610208458333333,-0.05198142433166505
2.6152083333333334,0.0023541259765625005,2.6152084583333335,-0.04900751686096192
2.6202083333333333,-0.009540405273437502,2.6202084583333334,-0.03711188697814942
2.625208333333333,-0.0055755615234375005,2.6252084583333333,-0.039094491958618166
2.630208333333333,-0.0055755615234375005,2.630208458333333,-0.04107709693908692
2.6352083333333334,-0.0006195068359375001,2.6352084583333335,-0.046033609390258794
2.6402083333333333,-0.004584350585937501,2.6402084583333334,-0.03711188697814942
2.645208333333333,-0.0026019287109375,2.6452084583333333,-0.03116407203674317
2.650208333333333,-0.0055755615234375005,2.650208458333333,-0.02422495460510254
2.6552083333333334,0.00037170410156250005,2.6552084583333335,-0.04107709693908692
2.6602083333333333,-0.0055755615234375005,2.6602084583333334,-0.04504230690002442
2.665208333333333,-0.0035931396484375003,2.6652084583333333,-0.049998819351196294
2.670208333333333,-0.0035931396484375003,2.670208458333333,-0.03711188697814942
2.6752083333333334,0.0023541259765625005,2.6752084583333335,-0.036120584487915046
2.6802083333333333,-0.0016107177734375003,2.6802084583333334,-0.03314667701721192
2.685208333333333,-0.0026019287109375,2.6852084583333333,-0.04107709693908692
2.690208333333333,-0.0035931396484375003,2.690208458333333,-0.046033609390258794
2.695208333333333,0.00037170410156250005,2.695208458333333,-0.04206839942932129
2.7002083333333333,-0.0026019287109375,2.7002084583333334,-0.04405100440979005
2.705208333333333,0.0013629150390625001,2.7052084583333333,-0.04504230690002442
2.710208333333333,-0.0006195068359375001,2.7102084583333332,-0.03413797950744629
2.715208333333333,-0.006566772460937501,2.715208458333333,-0.032155374526977545
2.7202083333333333,0.00037170410156250005,2.7202084583333335,-0.027198862075805668
2.7252083333333332,-0.0035931396484375003,2.7252084583333334,-0.03116407203674317
2.730208333333333,-0.0026019287109375,2.7302084583333333,-0.035129281997680666
2.735208333333333,-0.0016107177734375003,2.735208458333333,-0.027198862075805668
2.7402083333333334,0.0033453369140625006,2.7402084583333335,-0.021251047134399417
2.7452083333333333,-0.0026019287109375,2.7452084583333334,-0.02025974464416504
2.750208333333333,-0.007557983398437501,2.7502084583333333,-0.02025974464416504
2.755208333333333,-0.004584350585937501,2.755208458333333,-0.03810318946838379
2.7602083333333334,-0.0006195068359375001,2.7602084583333335,-0.025216257095336918
2.7652083333333333,-0.0016107177734375003,2.7652084583333334,-0.02224234962463379
2.770208333333333,-0.0016107177734375003,2.7702084583333333,-0.02224234962463379
2.775208333333333,-0.007557983398437501,2.775208458333333,-0.014311929702758791
2.7802083333333334,-0.006566772460937501,2.7802084583333335,-0.025216257095336918
2.7852083333333333,-0.008549194335937501,2.7852084583333334,-0.025216257095336918
2.790208333333333,-0.0026019287109375,2.7902084583333333,-0.02918146705627442
2.795208333333333,-0.0016107177734375003,2.795208458333333,-0.021251047134399417
2.8002083333333334,-0.004584350585937501,2.8002084583333335,-0.014311929702758791
2.8052083333333333,-0.006566772460937501,2.8052084583333334,-0.023233652114868168
2.810208333333333,-0.0026019287109375,2.8102084583333333,-0.019268442153930667
2.815208333333333,-0.0035931396484375003,2.815208458333333,-0.019268442153930667
2.820208333333333,-0.006566772460937501,2.820208458333333,-0.02224234962463379
2.8252083333333333,-0.0026019287109375,2.8252084583333334,-0.01827713966369629
2.830208333333333,-0.0026019287109375,2.8302084583333333,-0.00836411476135254
2.835208333333333,-0.0016107177734375003,2.8352084583333332,0.010470632553100587
2.840208333333333,-0.0016107177734375003,2.840208458333333,0.015427145004272462
2.8452083333333333,-0.004584350585937501,2.8452084583333335,0.018401052474975588
2.8502083333333332,-0.0035931396484375003,2.8502084583333334,0.010470632553100587
2.855208333333333,-0.0055755615234375005,2.8552084583333333,-0.0014249973297119144
2.860208333333333,-0.0055755615234375005,2.860208458333333,-0.010346719741821291
2.8652083333333334,-0.006566772460937501,2.8652084583333335,-0.017285837173461917
2.8702083333333333,-0.006566772460937501,2.8702084583333334,-0.025216257095336918
2.875208333333333,-0.0006195068359375001,2.8752084583333333,-0.027198862075805668
2.880208333333333,-0.0026019287109375,2.880208458333333,-0.02422495460510254
2.8852083333333334,-0.0055755615234375005,2.8852084583333335,-0.04305970191955567
2.8902083333333333,-0.006566772460937501,2.8902084583333334,-0.05297272682189942
2.895208333333333,-0.0006195068359375001,2.8952084583333333,-0.04900751686096192
2.900208333333333,-0.0016107177734375003,2.900208458333333,-0.05297272682189942
2.9052083333333334,-0.0026019287109375,2.9052084583333335,-0.05198142433166505
2.9102083333333333,-0.0016107177734375003,2.9102084583333334,-0.04702491188049317
2.915208333333333,-0.006566772460937501,2.9152084583333333,-0.05495533180236817
2.920208333333333,-0.0016107177734375003,2.920208458333333,-0.04702491188049317
2.9252083333333334,-0.007557983398437501,2.9252084583333335,-0.040085794448852546
2.9302083333333333,-0.0035931396484375003,2.9302084583333334,-0.04900751686096192
2.935208333333333,0.006318969726562501,2.9352084583333333,-0.049998819351196294
2.940208333333333,-0.006566772460937501,2.940208458333333,-0.05495533180236817
2.945208333333333,-0.0035931396484375003,2.945208458333333,-0.05198142433166505
2.9502083333333333,-0.004584350585937501,2.9502084583333334,-0.05693793678283692
2.955208333333333,-0.0026019287109375,2.9552084583333333,-0.05594663429260255
2.960208333333333,-0.0026019287109375,2.9602084583333332,-0.04206839942932129
2.965208333333333,-0.0055755615234375005,2.965208458333333,-0.04305970191955567
2.9702083333333333,-0.004584350585937501,2.9702084583333335,-0.053964029312133795
2.9752083333333332,-0.0026019287109375,2.9752084583333334,-0.046033609390258794
2.980208333333333,0.00037170410156250005,2.9802084583333333,-0.03413797950744629
2.985208333333333,-0.004584350585937501,2.985208458333333,-0.011338022232055666
2.9902083333333334,-0.006566772460937501,2.9902084583333335,0.023357564926147465
2.9952083333333333,-0.0026019287109375,2.9952084583333334,0.0818444118499756
3.000208333333333,-0.0035931396484375003,3.0002084583333333,0.15619209861755373
3.005208333333333,-0.0006195068359375001,3.005208458333333,0.24243541526794438
3.0102083333333334,-0.0035931396484375003,3.0102084583333335,0.2999309597015381
3.0152083333333333,-0.004584350585937501,3.0152084583333334,0.2721744899749756
3.020208333333333,0.0023541259765625005,3.0202084583333333,0.14033125877380373
3.025208333333333,-0.0006195068359375001,3.025208458333333,-0.04801621437072755
3.0302083333333334,-0.0026019287109375,3.0302084583333335,-0.17192902565002444
3.0352083333333333,-0.004584350585937501,3.0352084583333334,-0.22050284767150882
3.040208333333333,-0.0035931396484375003,3.0402084583333333,-0.21852024269104006
3.045208333333333,-0.0006195068359375001,3.045208458333333,-0.18878116798400882
3.0502083333333334,-0.0055755615234375005,3.0502084583333335,-0.1451638584136963
3.0552083333333333,-0.0016107177734375003,3.0552084583333334,-0.0936161289215088
3.060208333333333,-0.004584350585937501,3.0602084583333333,-0.05495533180236817
3.065208333333333,-0.004584350585937501,3.065208458333333,-0.03017276954650879
3.0702083333333334,-0.0016107177734375003,3.0702084583333336,-0.025216257095336918
3.0752083333333333,-0.0035931396484375003,3.0752084583333334,-0.00836411476135254
3.080208333333333,-0.0016107177734375003,3.0802084583333333,-0.009355417251586916
3.085208333333333,-0.0035931396484375003,3.0852084583333332,-0.019268442153930667
3.090208333333333,-0.008549194335937501,3.090208458333333,-0.02918146705627442
3.0952083333333333,-0.007557983398437501,3.0952084583333335,-0.017285837173461917
3.1002083333333332,-0.0016107177734375003,3.1002084583333334,-0.019268442153930667
3.105208333333333,-0.0026019287109375,3.1052084583333333,-0.0063815097808837895
3.110208333333333,-0.0035931396484375003,3.110208458333333,0.012453237533569337
3.1152083333333334,-0.007557983398437501,3.1152084583333335,0.015427145004272462
3.1202083333333333,-0.008549194335937501,3.1202084583333334,0.014435842514038087
3.125208333333333,-0.0055755615234375005,3.1252084583333333,0.015427145004272462
3.130208333333333,-0.0055755615234375005,3.130208458333333,0.015427145004272462
3.1352083333333334,-0.0026019287109375,3.1352084583333335,0.02831407737731934
3.1402083333333333,-0.0035931396484375003,3.1402084583333334,0.03624449729919434
3.145208333333333,-0.006566772460937501,3.1452084583333333,0.033270589828491216
3.150208333333333,-0.0035931396484375003,3.150208458333333,0.022366262435913088
3.1552083333333334,-0.011522827148437501,3.1552084583333335,0.02633147239685059
3.1602083333333333,-0.0016107177734375003,3.1602084583333334,0.04120100975036622
3.165208333333333,0.00037170410156250005,3.1652084583333333,0.05309663963317872
3.170208333333333,-0.0026019287109375,3.170208458333333,0.07490529441833498
3.1752083333333334,-0.0006195068359375001,3.1752084583333335,0.08779222679138185
3.1802083333333333,-0.0055755615234375005,3.1802084583333334,0.0977052516937256
3.185208333333333,-0.007557983398437501,3.1852084583333333,0.0897748317718506
3.190208333333333,0.00037170410156250005,3.190208458333333,0.09671394920349122
3.1952083333333334,0.0023541259765625005,3.1952084583333336,0.10464436912536622
3.2002083333333333,-0.004584350585937501,3.2002084583333334,0.10662697410583498
3.205208333333333,-0.0035931396484375003,3.2052084583333333,0.11852260398864747
3.210208333333333,0.0023541259765625005,3.2102084583333332,0.12248781394958498
3.215208333333333,-0.011522827148437501,3.215208458333333,0.14033125877380373
3.2202083333333333,-0.0055755615234375005,3.2202084583333335,0.15321819114685062
3.2252083333333332,0.0013629150390625001,3.2252084583333334,0.1770094509124756
3.230208333333333,-0.0026019287109375,3.2302084583333333,0.1968355007171631
3.235208333333333,-0.0016107177734375003,3.235208458333333,0.21071373558044437
3.2402083333333334,0.0033453369140625006,3.2402084583333335,0.20674852561950685
3.2452083333333333,-0.0006195068359375001,3.2452084583333334,0.21963545799255374
3.250208333333333,-0.0016107177734375003,3.2502084583333333,0.20972243309021
3.255208333333333,-0.0026019287109375,3.255208458333333,0.20476592063903812
3.2602083333333334,0.0013629150390625001,3.2602084583333335,0.19485289573669437
3.2652083333333333,-0.012514038085937502,3.2652084583333334,0.1770094509124756
3.270208333333333,0.0023541259765625005,3.2702084583333333,0.1571834011077881
3.275208333333333,-0.0035931396484375003,3.275208458333333,0.11951390647888185
3.2802083333333334,-0.0026019287109375,3.2802084583333335,0.07887050437927247
3.2852083333333333,-0.0026019287109375,3.2852084583333334,0.029305379867553716
3.290208333333333,-0.0026019287109375,3.2902084583333333,-0.013320627212524416
3.295208333333333,-0.007557983398437501,3.295208458333333,-0.05198142433166505
3.3002083333333334,-0.004584350585937501,3.3002084583333335,-0.08271180152893068
3.3052083333333333,-0.006566772460937501,3.3052084583333334,-0.10650306129455568
3.310208333333333,0.0033453369140625006,3.3102084583333333,-0.11839869117736818
3.315208333333333,-0.0055755615234375005,3.315208458333333,-0.14813776588439942
3.3202083333333334,0.0013629150390625001,3.3202084583333336,-0.17192902565002444
3.3252083333333333,0.00037170410156250005,3.3252084583333334,-0.18382465553283694
3.330208333333333,0.0013629150390625001,3.3302084583333333,-0.19472898292541507
3.335208333333333,-0.004584350585937501,3.3352084583333332,-0.20365070533752444
3.340208333333333,-0.004584350585937501,3.340208458333333,-0.19968549537658695
3.3452083333333333,-0.0026019287109375,3.3452084583333335,-0.19472898292541507
3.3502083333333332,-0.0026019287109375,3.3502084583333334,-0.1937376804351807
3.355208333333333,0.0013629150390625001,3.3552084583333333,-0.22050284767150882
3.360208333333333,-0.0035931396484375003,3.360208458333333,-0.21951154518127444
3.3652083333333334,0.00037170410156250005,3.3652084583333335,-0.21158112525939943
3.3702083333333333,-0.0035931396484375003,3.3702084583333334,-0.1927463779449463
3.375208333333333,-0.0006195068359375001,3.3752084583333333,-0.16598121070861818
3.380208333333333,-0.0035931396484375003,3.380208458333333,-0.16598121070861818
3.3852083333333334,-0.0016107177734375003,3.3852084583333335,-0.15705948829650881
3.3902083333333333,0.00037170410156250005,3.3902084583333334,-0.15309427833557132
3.395208333333333,-0.0026019287109375,3.3952084583333333,-0.15012037086486818
3.400208333333333,-0.004584350585937501,3.400208458333333,-0.11938999366760256
3.4052083333333334,-0.004584350585937501,3.4052084583333335,-0.10947696876525881
3.4102083333333333,-0.006566772460937501,3.4102084583333334,-0.10650306129455568
3.415208333333333,-0.0016107177734375003,3.4152084583333333,-0.11740738868713381
3.420208333333333,0.00037170410156250005,3.420208458333333,-0.13029432106018068
3.4252083333333334,-0.004584350585937501,3.4252084583333335,-0.1263291110992432
3.4302083333333333,-0.0035931396484375003,3.4302084583333334,-0.1263291110992432
3.435208333333333,-0.0026019287109375,3.4352084583333333,-0.11641608619689943
3.440208333333333,0.0013629150390625001,3.440208458333333,-0.10947696876525881
3.4452083333333334,-0.0016107177734375003,3.4452084583333336,-0.10253785133361817
3.4502083333333333,-0.006566772460937501,3.4502084583333334,-0.08667701148986817
3.455208333333333,-0.0016107177734375003,3.4552084583333333,-0.07279877662658692
3.460208333333333,-0.0016107177734375003,3.4602084583333332,-0.0658596591949463
3.465208333333333,0.00037170410156250005,3.465208458333333,-0.05892054176330567
3.4702083333333333,-0.0016107177734375003,3.4702084583333335,-0.05594663429260255
3.4752083333333332,0.0023541259765625005,3.4752084583333334,-0.06784226417541504
3.480208333333333,0.0053277587890625,3.4802084583333333,-0.07676398658752442
3.485208333333333,-0.0035931396484375003,3.485208458333333,-0.08766831398010255
3.4902083333333334,-0.0006195068359375001,3.4902084583333335,-0.0777552890777588
3.4952083333333333,-0.0026019287109375,3.4952084583333334,-0.07180747413635255
3.500208333333333,-0.0026019287109375,3.5002084583333333,-0.05892054176330567
3.505208333333333,-0.0006195068359375001,3.505208458333333,-0.05198142433166505
3.5102083333333334,-0.0026019287109375,3.5102084583333335,-0.03711188697814942
3.5152083333333333,-0.0026019287109375,3.5152084583333334,-0.040085794448852546
3.520208333333333,-0.007557983398437501,3.5202084583333333,-0.05297272682189942
3.525208333333333,-0.004584350585937501,3.525208458333333,-0.05892054176330567
3.5302083333333334,-0.0035931396484375003,3.5302084583333335,-0.040085794448852546
3.5352083333333333,-0.0035931396484375003,3.5352084583333334,-0.04305970191955567
